Temperature,Cp,Cp_uncertainty,H,H_uncertainty,S,S_uncertainty,G,G_uncertainty
100.0,29.43845871989466,3.0,5327.442477069196,7505.857132586311,186.59917063307032,18.0610685816584,5308.782560005889,7506.704032230865
110.0,29.438462723869733,3.0,5410.587126498044,7623.441423447345,188.48596347417123,18.338427149878587,5389.853670515886,7624.235060465436
120.0,29.438478693793282,3.0,5493.731864377985,7741.0258393971135,190.25200690859006,18.59163583676235,5470.901623548955,7741.761623353313
130.0,29.438528571022317,3.0,5576.876905222645,7858.610683803697,191.91665637791493,18.824565730627324,5551.927739893516,7859.285588771391
140.0,29.438657363720903,3.0,5660.022789486713,7976.196720985446,193.49495958040086,19.040226371124508,5632.933495145457,7976.809043527389
150.0,29.438943481663912,3.0,5743.170666621913,8093.785576512577,194.9988495362294,19.241004362290212,5713.920839191479,8094.334745177524
160.0,29.439506811788227,3.0,5826.322672463208,8211.380270911863,196.43795243166102,19.42882494137654,5794.892600074142,8211.86669317794
170.0,29.440512232244252,3.0,5909.4823660344655,8328.985837403126,197.8201504863257,19.605264552309478,5875.852940451789,8329.410774416521
180.0,29.442167497069242,3.0,5992.655173644694,8446.609949946158,199.1519837343493,19.771631201914204,5956.807816572511,8446.975412300095
190.0,29.444715785313036,3.0,6075.848784409251,8564.263482592183,200.4389427688799,19.929023008820323,6037.765385283164,8564.572142352117
200.0,29.448424224501178,3.0,6159.073449756657,8681.960933050448,201.68568581740269,20.078371618524876,6118.736312593176,8682.216048587776
210.0,29.453570186711477,3.0,6242.342155467958,8799.720665988623,202.896202177312,20.22047489050674,6199.733953010723,8799.926017133648
220.0,29.460427164834066,3.0,6325.670653165916,8917.564957565251,204.07393694185942,20.356021843416226,6280.774387038707,8917.724789255033
230.0,29.469251725842653,3.0,6409.07735488485,9035.519846328974,205.22188736878303,20.485611928800942,6361.87632079003,9035.638819390493
240.0,29.4802725793356,3.0,6492.58310708693,9153.614813629323,206.34267821017988,20.609770097080315,6443.060864316487,9153.697961661579
250.0,29.49368232710244,3.0,6576.210868480561,9271.882327983098,207.4386212611558,20.728958707275495,6524.351213165272,9271.935019525721
260.0,29.509632054479184,3.0,6659.985319552008,9390.357292868699,208.51176295383027,20.84358704581039,6605.772261184012,9390.385198199852
270.0,29.528228622421228,3.0,6743.932431728542,9509.07643743081,209.56392281143204,20.954019017330747,6687.350172569455,9509.085499445859
280.0,29.549534324456545,3.0,6828.079021621608,9628.077686085031,210.5967248510488,21.060579425254097,6769.1119386633145,9628.074094785263
290.0,29.573568470993106,3.0,6912.452311862653,9747.399537445957,211.61162349631712,21.163559154307766,6851.084941048721,9747.389707624287
300.0,29.60031043343608,3.0,6997.079515468517,9867.080476531079,212.60992517502046,21.263219490048428,6933.2965379160105,9867.071028286746
310.0,29.62970370007718,3.0,7081.987456062826,9987.15843767272,213.5928064915459,21.35979575335352,7015.7736860504465,9987.156179423953
320.0,29.661660545408413,3.0,7167.202232029755,10107.670329559734,214.5613296527281,21.45350038558996,7098.542606540882,10107.682243255389
330.0,29.6960669792381,3.0,7252.748929009191,10228.651628644275,215.5164556680599,21.54452558865632,7181.628498638731,10228.684856904163
340.0,29.7327877108999,3.0,7338.651382150817,10350.136042918282,216.45905572737527,21.633045600519395,7265.0553032035095,10350.1978778585
350.0,29.771670929849193,3.0,7424.931987231925,10472.155244793743,217.38992107055597,21.719218669155534,7348.84551485723,10472.253118317927
360.0,29.8125527629075,3.0,7511.61155805863,10594.73866943755,218.30977159699825,21.80318877444399,7433.020040283711,10594.880144798248
370.0,29.855261318384883,3.0,7598.709226430416,10717.913373300002,219.2192634119108,21.885087137426495,7517.598098968008,10718.106137755887
380.0,29.899620267802227,3.0022943900737475,7686.242380260545,10841.70394660386,220.11899546787288,21.965033548618916,7602.597161982754,10841.955805018713
390.0,29.945451947394226,3.011460725992147,7774.226635116556,10966.132473096523,221.00951543040617,22.043137541125574,7688.032924098698,10966.451342344377
400.0,29.992579984964344,3.020886333506171,7862.675834390064,11091.218530290158,221.89132487334587,22.119499429713514,7773.919304440726,11091.612434348066
410.0,30.040831474180866,3.0305366313494755,7951.602073448597,11216.979223617569,222.7648838918579,22.194211233415913,7860.268471052936,11217.456289242777
420.0,30.090038729292047,3.0403780823717117,8041.015743401767,11343.429248326893,223.63061520679844,22.267357496404028,7947.090885014912,11343.997701229131
430.0,30.14004065967405,3.0503784684481117,8130.925590479148,11470.580973454615,224.48890782282876,22.339016019610096,8034.395360115332,11471.249134886613
440.0,30.19068380665547,3.060507097844396,8221.338787429157,11598.444542798827,225.34012029359667,22.409258513763675,8122.189134499974,11599.22082649915
450.0,30.24182308558109,3.07073495362952,8312.261013776835,11727.02798842087,226.1845836398715,22.47815118301864,8210.477951138893,11727.92089785288
460.0,30.29332227482072,3.081034791477446,8403.696542203152,11856.337352804117,227.02260396039105,22.545755247122546,8299.266144381372,11857.355478643343
470.0,30.345054290985956,3.091381194710493,8495.648328713925,11986.376816372089,227.85446477006414,22.612127409057166,8388.556730271994,11987.528834201694
480.0,30.396901286445022,3.1017505938023064,8588.118104643785,12117.148827601699,228.68042909586,22.677320274216342,8478.351498677772,12118.443495782136
490.0,30.448754601670075,3.1121212568473173,8681.106468883865,12248.65423345291,229.50074135704472,22.74138272645328,8568.651105618912,12250.100391137346
500.0,30.500514601264914,3.122473256766285,8774.612979028869,12380.89240827015,230.31562905327465,22.80436026569927,8659.455164502231,12382.498973541995
510.0,30.552090418883637,3.1327884202900296,8868.636240409318,12513.861379692931,231.12530428133203,22.86629531131075,8750.76233522584,12515.637347805821
520.0,30.603399632782683,3.1430502630698385,8963.173992209455,12647.557950444947,231.9299650989177,22.92722747482788,8842.570410358017,12649.512392148948
530.0,30.65436789052584,3.15324391461847,9058.223190072222,12781.977815155156,232.72979675184277,22.987193805412893,8934.876397793745,12784.119875095872
540.0,30.704928498426938,3.163356036198689,9153.78008476317,12917.115671605352,233.52497277914222,23.046229010872782,9027.676599462433,12919.454566785014
550.0,30.755021988685552,3.1733747342504124,9249.840296607463,13052.965325999985,234.31565600902692,23.104365656849723,9120.9666858025,13055.510344291666
560.0,30.80459567484864,3.1832894714830298,9346.398885531897,13189.519792020528,235.10199945717568,23.161634346479477,9214.741765835879,13192.280290728315
570.0,30.853603204203715,3.1930909773540446,9443.450416639796,13326.771383562394,235.8841471376113,23.218063882566597,9308.996452771358,13329.75678802177
580.0,30.902004113959634,3.202771159305229,9540.989021323712,13464.711801161335,236.66223479529293,23.273681414102924,9403.724925142444,13467.931603375157
590.0,30.949763396575644,3.212323015828431,9639.00845398179,13603.332212202506,237.4363905685679,23.328512568757915,9498.920983546335,13606.795969508968
600.0,30.996851078333748,3.2217405521800515,9737.502144450678,13742.623325071783,238.2067355887462,23.382581572793583,9594.57810309743,13746.340658841482
610.0,31.043241814188356,3.2310186993509733,9836.463246303421,13882.57545745932,238.97338452328083,23.435911359700505,9690.68948174422,13886.556051819205
620.0,31.088914501045817,3.2401532367224655,9935.88468118653,14023.178599061604,239.73644606833847,23.48852366871203,9787.24808462416,14027.43219964412
630.0,31.133851910901623,3.2491407186936265,10035.759179388206,14164.422468953622,240.4960233959287,23.540439134230077,9884.24668464877,14168.95888166968
640.0,31.178040344673345,3.2579784054479712,10136.079316840947,14306.296567918422,241.25221456020506,23.59167736708535,9981.677899522416,14311.125657753277
650.0,31.221469307093148,3.2666641979319317,10236.837548767613,14448.790226029845,242.00511286706046,23.642257028456427,10079.534225404024,14453.921915861096
660.0,31.264131202647413,3.2751965770427844,10338.02624018184,14591.892645786633,242.754807210703,23.692195897184945,10177.808067422775,14597.336915223821
670.0,31.306021052257424,3.283574546964787,10439.637693451888,14735.592941093575,243.5013823805051,23.741510931145363,10276.49176725695,14741.359825339008
680.0,31.34713623017042,3.291797582547386,10541.664173132864,14879.880172379593,244.2449193410729,23.790218323258912,10375.577627980934,14885.97976111007
690.0,31.38747622036292,3.299865580585886,10644.09792826607,15024.743378133779,244.98549548817164,23.838333552678662,10475.057936379233,15031.18581440304
700.0,31.427042391637976,3.3077788148408973,10746.931212336573,15170.171603129647,245.72318488286777,23.885871431617893,10574.924982918566,15176.967082291394
710.0,31.46583779051638,3.3155378946165786,10850.156301071476,15316.153923595713,246.4580584659994,23.932846148244213,10675.171079560618,15323.31269224708
720.0,31.503866950971116,3.3231437267075252,10953.765508252156,15462.679469577355,247.190184254869,23.979271306018134,10775.788575588651,15470.211824522727
730.0,31.54113572002869,3.3305974805190406,11057.751199703955,15609.737444721233,247.91962752385604,24.025159959815547,10876.76987161154,15617.653731956336
740.0,31.577651098255103,3.337900556164323,11162.105805617168,15757.3171436998,248.6464509704703,24.070524649138406,10978.10743189902,15765.627757415965
750.0,31.61342109415341,3.345054555343984,11266.82183134323,15905.407967479407,249.37071486821316,24.11537742868697,11079.79379519207,15914.12334908792
760.0,31.648454591521148,3.3520612548175315,11371.891866800459,16053.999436622042,250.09247720747197,24.159729896538735,11181.821584122781,16063.130073798438
770.0,31.682761228845727,3.3589225822824478,11477.308594614318,16203.081202797393,250.8117938255513,24.2035932201546,11284.183513368644,16212.637628545632
780.0,31.716351289852216,3.3656405944837453,11583.064797108127,16352.643058669213,251.52871852682966,24.246978160410272,11386.8723966572,16362.63585040552
790.0,31.7492356043586,3.372217457385022,11689.153362251458,16502.674946307616,252.24330319393496,24.289895093831333,11489.88115272825,16513.114724963893
800.0,31.781425458637145,3.378655428240731,11795.567288665283,16653.166964267417,252.95559789074042,24.33235403319242,11593.20281035269,16664.064393414006
810.0,31.812932514525436,3.3849568394183893,11902.299689775064,16804.109373461517,253.66565095790378,24.374364646625093,11696.830512499162,16815.475158449113
820.0,31.843768736576234,3.391124083828549,12009.343797195757,16955.492601947983,254.37350910160242,24.415936275364825,11800.757519732444,16967.337489068523
830.0,31.873946326580587,3.3971596018294195,12116.69296342571,17107.307248739824,255.0792174760523,24.457077950254796,11904.977212920587,17119.64202440606
840.0,31.903477664843106,3.403065869481923,12224.34066392001,17259.54408673714,255.78281976034157,24.497798407112654,12009.483095321322,17272.379576680694
850.0,31.932375257631456,3.4088453880395932,12332.280498607974,17412.19406487317,256.48435823006037,24.538106101056417,12114.268794112422,17425.54113336081
860.0,31.96065169026362,3.4145006745660265,12440.506192913734,17565.24830955762,257.18387382415926,24.578009219876186,12219.328061424956,17579.11785862542
870.0,31.988319585336324,3.420034253580567,12549.011598333782,17718.698125493444,257.8814062074309,24.61751569653052,12324.654774933319,17733.10109419862
880.0,32.015391565635525,3.425448649640407,12657.790692620592,17872.534995936512,258.5769938289711,24.65663322083856,12430.242938051098,17887.48235962659
890.0,32.041880221305725,3.430746380774447,12766.837579616986,18026.75058246138,259.2706739769414,24.695369250432616,12536.086679777509,18042.253352060383
900.0,32.06779808088822,3.4359299526909455,12876.146488781827,18181.336724290508,259.96248282992764,24.733731021029865,12642.180254234892,18197.405945601888
910.0,32.09315758586996,3.4410018536872933,12985.711774443964,18336.28543723918,260.65245550516045,24.77172555607643,12748.518039934268,18352.93219026515
920.0,32.117971068413965,3.4459645501960945,13095.527914817802,18491.588912323332,261.3406261038398,24.809359675812303,12855.094538802268,18508.82431060025
930.0,32.142250731969625,3.4508204829072264,13205.589510810845,18647.23951407312,262.0270277537848,24.846640005801298,12961.904374999825,18665.07470402266
940.0,32.16600863448667,3.455572063410637,13315.891284650563,18803.22977859106,262.711692649609,24.883572984966136,13068.94229355993,18821.67593888677
950.0,32.189256673980026,3.460221671309308,13426.428078355362,18959.552411389624,263.3946520906052,24.920164873165373,13176.203158869288,18978.620752338607
960.0,32.21200657621469,3.4647716517562404,13537.194852071983,19116.20028503998,264.0759365165066,24.95642175834566,13283.681953016137,19135.90204797931
970.0,32.23426988429977,3.476099105298118,13648.18668229947,19273.166436660307,264.7555755412775,24.992349563299843,13391.37377402443,19293.51289336786
980.0,32.256057949999516,3.5069120833085683,13759.3987600178,19430.444065269257,265.43359798507305,25.027954052058945,13499.273833992429,19451.446517388686
990.0,32.277381926586,3.537068740200915,13870.826388737492,19588.02652902772,266.11003190449634,25.063240835943603,13607.37745715204,19609.696307507144
1000.0,32.298252763074146,3.566584560220518,13982.46498248477,19745.90734238938,266.7849046212706,25.098215379298452,13715.680077863499,19768.255806933543
1010.0,32.31868119969377,3.5954747323460654,14094.310063735367,19904.080173178696,267.458242749433,25.132883004930935,13824.177238558439,19927.118711714258
1020.0,32.33867776446699,3.623754145449224,14206.357261308714,20062.538839612822,268.1300722211506,25.16724889927447,13932.86458764314,20086.278867766425
1030.0,32.35825277077109,3.651437384848019,14318.602308232876,20221.277307282173,268.80041831124777,25.20131811729389,14041.73787737229,20245.73026787102
1040.0,32.37741631577818,3.6785387301001866,14431.04103958963,20380.289686102922,269.46930566052924,25.235095587150184,14150.79296170268,20405.467048637496
1050.0,32.39617827967308,3.705072153897123,14543.669390347894,20539.57022725297,270.13675829797705,25.26858611463975,14260.025794135017,20565.483487451682
1060.0,32.41454832556023,3.7310513219321404,14656.483393192837,20699.11332010189,270.8027996618903,25.301794387422394,14369.432425551235,20725.773999417244
1070.0,32.43253589997855,3.7564895936287246,14769.479176357187,20858.91348914388,271.46745262003486,25.625836594460985,14479.00900205375,20886.333134299955
1080.0,32.45015023395142,3.78140002362532,14882.6529614604,21018.965390941943,272.13073948886336,26.10202087119284,14588.75176281243,21047.155573482833
1090.0,32.467400344505435,3.80579536392325,14996.001061360748,21179.263811090237,272.7926820518608,26.58010628346295,14698.65703792422,21208.236126939213
1100.0,32.48429503659845,3.829688066613319,15109.519878024652,21339.803661200873,273.45330157706877,27.06006275371849,14808.721246289877,21369.569730229967
1110.0,32.50084290540293,3.8530902871049753,15223.205900417148,21500.57997592059,274.1126188338353,27.541860909665736,14918.940893511592,21531.151441530325
1120.0,32.5170523388961,3.876013887789401,15337.055702416746,21661.587909981918,274.7706541088358,28.025472061613193,15029.31256981485,21692.976438690923
1130.0,32.532931520713376,3.898470442074776,15451.065940757548,21822.822735292866,275.427427221406,28.51086818078755,15139.832947997358,21855.040016337156
1140.0,32.5484884332255,3.9204712387380845,15565.233353001031,21984.27983806864,276.08295753822546,28.99802187856781,15250.498781407454,22017.33758301021
1150.0,32.56373086080437,3.9420272865436106,15679.554755539599,22145.954716008197,276.7372639873878,29.486906386587307,15361.306901954104,22179.864658352773
1160.0,32.57866639324564,3.9631493190833096,15794.027041633582,22307.84297551816,277.3903650718907,29.977495537655855,15472.254218150189,22342.616870341844
1170.0,32.5933024293199,3.9838477997989115,15908.64717948314,22469.94032898608,278.0422788825766,30.469763747458547,15583.337713190525,22505.589952570608
1180.0,32.607646180427004,4.004132927149884,16023.412210336195,22632.242592104638,278.693023110554,30.963685996990094,15694.554443065743,22668.779741581086
1190.0,32.62170467433082,4.024014639895203,16138.319246633351,22794.745681248172,279.34261505912497,31.459237815685736,15805.901534712992,22832.18217424884
1200.0,32.635484758954206,4.043502622460237,16253.365470190465,22957.44561090245,279.991071655246,31.95639526521417,15917.37618420417,22995.79328522071
1210.0,32.64899310621625,4.062606310363479,16368.548130419389,23120.338491148406,280.6384094605443,32.455134923897546,16028.97565497213,23159.609204406323
1220.0,32.66223621589583,4.081334895680323,16483.86454258724,23283.420525200385,281.2846446819128,32.95543387172809,16140.697276075305,23323.626154523892
1230.0,32.675220419507134,4.0996973325240464,16599.312086114373,23446.688006999117,281.92979318170416,33.457269675951665,16252.538440500875,23487.840448700535
1240.0,32.687951884174964,4.117702342526171,16714.888202911105,23610.13731885947,282.5738704875432,33.96062037719047,16364.49660350655,23652.24848812719
1250.0,32.70043661649851,4.135358420300723,16830.590395753166,23773.764929173023,283.2168918017769,34.46546447607923,16476.569281000946,23816.84675976812
1260.0,32.71268046639403,4.1526738388786315,16946.416226695666,23937.56739016504,283.8588720105783,34.97178092039033,16588.75404796234,23981.63183412473
1270.0,32.72468913090806,4.169656655100363,17062.363315525374,24101.54133570569,284.4998256927204,35.479549092625085,16701.048536895618,24146.60036305332
1280.0,32.73646815799363,4.186314714956326,17178.429338250917,24265.683479174855,285.1397671280366,35.98874879804952,16813.450436327028,24311.74907763636
1290.0,32.7480229502432,4.2026556588660755,17294.612025630562,24429.990611380104,285.7787103055804,36.499360253154435,16925.957489336364,24477.074786106674
1300.0,32.75935876857285,4.218686926888462,17410.909161737083,24594.459598527097,286.41666893149903,37.011364074520465,17038.567492126134,24642.574371823972
1310.0,32.77048073585293,4.234415763856215,17527.31858255916,24759.087380241675,287.0536564366336,37.52474126807003,17151.278292627172,24808.244791302848
1320.0,32.78139384048124,4.249849224429185,17643.838174638884,24923.870967643,287.6896859838572,38.03947321868955,17264.087789140194,24974.083072291673
1330.0,32.792102939895514,4.264994178061638,17760.465873744604,25088.80744146668,288.32477047516295,38.55554168020516,17376.99392901264,25140.086311901352
1340.0,32.80261276402213,4.279857313879658,17877.19966357866,25253.893950237212,288.9589225585133,39.07292876569711,17489.99470735025,25306.251674783245
1350.0,32.812927918659256,4.294445145465458,17994.0375745192,25419.12770848866,289.5921546344588,39.59161693813844,17603.088165762678,25472.57639135515
1360.0,32.82305288879225,4.308764015546153,18110.977682395587,25584.50599503282,290.2244788625387,40.11158900134371,17716.272391142535,25639.05775607465
1370.0,32.83299204184011,4.322820100584943,18228.018107296506,25750.02615127361,290.8559071674705,40.63282809121604,17829.54551447707,25805.693125758575
1380.0,32.842749630832046,4.3366194152733994,18345.157012410265,25915.685579567024,291.48645124513746,41.15531766727855,17942.905709691975,25972.47991794787
1390.0,32.85232979751326,4.350167816923783,18462.3926028965,26081.481741625477,292.11612256838305,41.67904150448029,18056.351192526447,26139.415609316704
1400.0,32.861736575379865,4.363471009760957,18579.723124788547,26247.41215696552,292.74493239262006,42.20398368526396,18169.88021943888,26306.497734124892
