Temperature,Cp,Cp_uncertainty,H,H_uncertainty,S,S_uncertainty,G,G_uncertainty
100.0,25.60189331871015,4.947945540778467,9813.4386847176,13850.013810196953,147.228144669453,27.976557576822167,9798.715870250653,13852.811465954635
110.0,25.601893318710207,4.947945540778548,9896.583310899128,13967.598068181314,149.11493729189993,26.722443423145332,9880.18066779702,13970.53753695786
120.0,25.601893318711433,4.9479455407802835,9979.727937080666,14085.182326165686,150.88097976423504,25.639095769415214,9961.622219508958,14088.259017658016
130.0,25.601893318727583,4.947945540803124,10062.872563262263,14202.766584150142,152.54562594064845,24.699144132551947,10043.041631889979,14205.977472887373
140.0,25.60189331887124,4.947945541006284,10146.017189444457,14320.350842135442,154.123919877967,23.8813130033579,10124.439840661542,14323.694225955911
150.0,25.60189331980611,4.947945542328385,10229.161815630974,14437.935100126855,155.6277875170713,23.168736554495684,10205.817647503414,14441.410410610031
160.0,25.601893324528533,4.947945549006905,10312.306441841301,14555.519358151942,157.06684297975673,22.547818364531974,10287.17574696454,14559.127009090265
170.0,25.60189334390551,4.947945576410088,10395.451068157017,14673.103616326069,158.4489499962712,22.007437439499274,10368.51474665765,14676.844880690784
180.0,25.601893410813254,4.947945671031926,10478.595694861217,14790.687875049596,159.78062261581493,21.538381522672726,10449.83518279037,14794.564783723677
190.0,25.60189361074093,4.947945953772354,10561.740322793814,14908.27213551034,161.06731743294307,21.132933824028044,10531.137532481554,14912.287392936907
200.0,25.601894139403147,4.947946701413634,10644.884954138392,15025.856400796352,162.31365077211936,20.78456587490028,10612.422223983967,15030.013313971333
210.0,25.601895399008384,4.947948482764446,10728.029593968886,15143.440678083265,163.5235628316763,20.487705393369207,10693.689645774233,15147.743096215872
220.0,25.60189814337822,4.947952363889487,10811.174252996088,15261.02498251842,164.70044361322027,20.23755819318655,10774.94015540118,15265.477245320923
230.0,25.601903677839477,4.947960190799655,10894.31895203673,15378.609343541126,165.84723084304807,20.029969701980928,10856.174088942831,15383.216236572584
240.0,25.60191411330177,4.947974948771961,10977.46372875597,15496.193814417958,166.96648704763913,19.861315960051098,10937.391771864537,15500.960530248372
250.0,25.601932666405965,4.9480011868235385,11060.60864719094,15613.778485711096,168.0604608961271,19.728416869010985,11018.593531966908,15618.71058992835
260.0,25.601963990530805,4.948045485825713,11143.75381044529,15731.363503231125,169.13113651696398,19.62846644749437,11099.779714950879,15736.466904507473
270.0,25.602014517038302,4.948116941097877,11226.89937676387,15848.949090770051,170.18027351496312,19.558976238509686,11180.95070291483,15854.230014354449
280.0,25.60209278322939,4.948227626206791,11310.045578973426,15966.535577594621,171.20943971944988,19.517728996561548,11262.10693585198,15972.000541713658
290.0,25.60220972332702,4.948393004478847,11393.192747037156,16084.123430343263,172.2200381941656,19.502740489878107,11343.248935960848,16089.779225085327
300.0,25.6023789011724,4.948632258082229,11476.341333243827,16201.713288648885,173.21332967527843,19.512227768271796,11424.377334341243,16207.566956979366
310.0,25.602616667638607,4.948968510643422,11559.49193935945,16319.306003537144,174.19045133531552,19.54458262693189,11505.492899445502,16325.364824151491
320.0,25.602942231296716,4.94942892718413,11642.645344926415,16436.902677447455,175.15243257071006,19.598349279461633,11586.59656650379,16443.174149216884
330.0,25.603377636862135,4.95004468363988,11725.802535810259,16554.504704604235,176.10020836001496,19.672205466510857,11667.689467051454,16560.996532408182
340.0,25.60394765175274,4.95085080642893,11808.964732068931,16672.113810429983,177.03463062537475,19.764946388228733,11748.772957656305,16678.833892201983
350.0,25.604679566212052,4.951885889783785,11892.133414248985,16789.732088733712,177.95647794210413,19.875470972845886,11829.848646969249,16796.68850357421
360.0,25.60560291657773,4.953191704393747,11975.310347289387,16907.36203551605,178.86646387339835,20.00277008961399,11910.918420294964,16914.56303274831
370.0,25.606749144259474,4.954812715126839,12058.497601325093,17025.00657838992,179.7652441543484,20.145916389074003,11991.984460987982,17032.460567453876
380.0,25.608151204821525,4.956795528188956,12141.697568818501,17142.669100808096,180.65342290792896,20.304055512321877,12073.049268113487,17150.38464190278
390.0,25.60984314233309,4.959188289164504,12224.91297759535,17260.353460498736,181.5315580427834,20.47639845738753,12154.115669958665,17268.33925589712
400.0,25.611859644009666,4.962040053184064,12308.146899513315,17378.06400172463,182.40016595645176,20.662214927866216,12235.186833130732,17386.328887695774
410.0,25.614235589304826,4.965400147243934,12391.402754637984,17495.805561188903,183.25972564666804,20.860827518666202,12316.26626712285,17504.358500471557
420.0,25.617005606219966,4.96931754273333,12474.684310935916,17613.58346760098,184.11068231636108,21.071606617767586,12397.357824363044,17622.43354238044
430.0,25.620203645860464,4.9738402537659265,12557.995679613567,17731.403535084777,184.95345054416376,21.293965922444976,12478.465695879575,17740.559940431427
440.0,25.623862584342554,4.979014774191192,12641.341306331831,17849.272050754233,185.78841708090846,21.527358484426,12559.594402816232,17858.74408848738
450.0,25.628013859179354,4.984885563366534,12724.725958606872,17967.19575689536,186.6159433232511,21.771273211658507,12640.748784111409,17976.992829840605
460.0,25.63268714535114,4.991494588051521,12808.1547097697,18085.181828281682,187.43636750783207,22.025231765298322,12721.933980716098,18095.31343489372
470.0,25.637910074471073,4.998880925248246,12891.632919899776,18203.237845210264,188.25000666293738,22.288785799643705,12803.155416768195,18213.7135745361
480.0,25.64370799884409,5.007080428530177,12975.16621417386,18321.371762882376,189.0571583492289,22.561514500371,12884.41877816623,18332.201289842556
490.0,25.650103800813586,5.016125458417691,13058.760459082088,18439.591877767933,189.85810221657766,22.843022382839937,12965.729988995965,18450.784958735523
500.0,25.65711774661093,5.026044675690041,13142.421736961121,18557.906791589925,190.65310140020483,23.132937317651933,13047.09518626102,18569.473260248753
510.0,25.664767382965422,5.036862895169794,13226.156319281363,18676.325373546857,191.44240377609384,23.430908755229463,13128.520693355555,18688.275137012024
520.0,25.673067473987672,5.0486009964623895,13309.970639104016,18794.85672136113,192.22624309287932,23.736606125083323,13210.01299269572,18807.199756546175
530.0,25.68202997528961,5.0612758873563735,13393.871263095818,18913.5101217019,193.0048399950731,24.04971738875227,13291.578697898429,18926.25647191794
540.0,25.691664041929716,5.0749005150596185,13477.864863457084,19032.295010485348,193.77840295048108,24.369947728237985,13373.224525863823,19045.454782258596
550.0,25.701976066548585,5.0894839201311495,13561.958190083262,19151.22093350516,194.5471290929481,24.69701835418347,13454.957269082139,19164.804293599962
560.0,25.712969743965033,5.105031327833847,13646.158043243217,19270.29750779379,195.31120499009785,25.030665420125015,13536.783768448762,19284.314680429063
570.0,25.724646158513856,5.1215442716486805,13730.4712470203,19389.534384062466,196.07080734446944,25.370639030935248,13618.710886833951,19403.9956483101
580.0,25.737003890501594,5.139020743825911,13814.904623725306,19508.941210515644,196.82610363536617,25.716702335112085,13700.745483616794,19523.85689787001
590.0,25.75003913831735,5.1574553680758495,13899.464969455123,19628.52759828571,197.57725270779508,26.068630691892256,13782.894390357524,19643.90809039393
600.0,25.763745852944567,5.176839589797235,13984.159030937033,19748.303088685887,198.32440531406948,26.42621090530969,13865.164387748591,19764.158815229075
610.0,25.77811588186202,5.197161879583993,14068.993483767557,19868.277122435316,199.06770461294968,26.78924051830397,13947.562183953658,19884.618559151484
620.0,25.793139119585668,5.218407946123531,14153.974912125652,19988.45901096917,199.80728663059494,27.1575271608359,14030.094394414684,20005.29667780889
630.0,25.808803662376654,5.240560954986917,14239.109790014089,20108.857909909973,200.54328068707986,27.53088794670204,14112.767523181228,20126.2023693164
640.0,25.8250959649169,5.263601750201619,14324.40446405951,20229.482794743202,201.27580979177716,27.909148914379184,14195.587945792771,20247.344650048406
650.0,25.842000997024968,5.2875090758811965,14409.865137880894,20350.342438710948,202.00499101051884,28.292144507780066,14278.561893724056,20368.732332641004
660.0,25.85950239874659,5.3122597955564546,14495.497858018382,20471.445392912283,202.73093580710895,28.679717093281244,14361.69544038569,20490.374006193848
670.0,25.87758263240252,5.3378291072035475,14581.308501398835,20592.79996857688,203.4537503614668,29.07171650980082,14444.994488656652,20612.278018638448
680.0,25.896223130408387,5.364190752292831,14667.302764301634,20714.414221460294,204.17353586642432,29.467999649063408,14528.464759912466,20734.45246122166
690.0,25.915404437895575,5.39131721748526,14753.486152777448,20836.29593829406,204.89038880497841,29.868430063506292,14612.111784502013,20856.90515503788
700.0,25.93510634935768,5.419179927879648,14839.86397446385,20958.452625211215,205.60440120960502,30.272877599553823,14695.940893617128,20979.643639530903
710.0,25.95530803872361,5.447749430963794,14926.44133173499,21080.891498058485,206.31566090507306,30.681218054226633,14779.957212492389,21102.675162876985
720.0,25.97598818241599,5.476995570645377,15013.22311611726,21203.619474498828,207.0242517360473,31.09333285326279,14864.165654867307,21226.006674153177
730.0,25.997125075092963,5.506887650935581,15100.21400389908,21326.643167802755,207.7302537806402,31.50910874910944,14948.570918639212,21349.6448171896
740.0,26.01869673789337,5.53739458903086,15187.418452860831,21449.968882223733,208.43374355095983,31.928437537305793,15033.17748263312,21473.59592600134
750.0,26.0406810191106,5.568485057687284,15274.840700049292,21573.602609850786,209.13479418159852,32.35121578991944,15117.989604413093,21597.86602169323
760.0,26.063055687310715,5.600127616909487,15362.48476052109,21697.550028831454,209.83347560692192,32.77734460482202,15203.01131905983,21722.460810731118
770.0,26.08579851698657,5.632290835083821,15450.354426979831,21821.816502858605,210.52985472793756,33.20672936970132,15288.24643883932,21847.385684473276
780.0,26.108887366902714,5.664943399774827,15538.453270233113,21946.407081816775,211.2239955694552,33.639279539803084,15373.698553688937,21972.64571985782
790.0,26.132300251337846,5.6980542184772665,15626.78464039729,22071.326503485954,211.91595942818861,34.07490842848336,15459.371032449022,22098.245681144457
800.0,26.156015404472832,5.7315925096745195,15715.351668780128,22196.579196204046,212.6058050123949,34.51353300972872,15545.267024770212,22224.19002261183
810.0,26.180011338204466,5.765527884599602,15804.157270374268,22322.16928239318,213.2935885735991,34.95507373186963,15631.389463629654,22350.482892115997
820.0,26.204266893689354,5.799830420129224,15893.204146897195,22448.100582858868,213.97936403090694,35.39945434177537,15717.74106839185,22477.12813541912
830.0,26.2287612869393,5.8344707232653965,15982.494790316636,22574.37662177566,214.66318308837225,35.84660171887179,15804.324348353286,22604.129301202323
840.0,26.253474148800535,5.8694199876746085,16072.031486803535,22701.000632277515,215.34509534584748,36.296445718374976,15891.141606713023,22731.48964668095
850.0,26.27838555965493,5.904650042762744,16161.81632105817,22827.97556257584,216.02514840371626,36.748919023176754,15978.194944915012,22859.212143745543
860.0,26.303476079182538,5.94013339576567,16251.851180958296,22955.304082532963,216.70338796187784,37.203957003859806,16065.486267311082,22987.299485556283
870.0,26.32872677152252,5.975843267332181,16342.137762481634,23082.988590623572,217.37985791332642,37.66149758635647,16153.01728609704,23115.7540935237
880.0,26.35411922616396,6.01175362106805,16432.677574858313,23211.031221221387,218.0546004326457,38.121481126798386,16240.789526477585,23244.57812461297
890.0,26.379635574890106,6.04783918749881,16523.47194591228,23339.433852153037,218.7276560597174,38.58385029313523,16328.804332019128,23373.77347891393
900.0,26.405258505089577,6.084075482894642,16614.52202755367,23468.19811246547,219.39906377892055,39.04854995312923,16417.06287015264,23503.34180742329
910.0,26.430971269736546,6.120438823384495,16705.82880138744,23597.32539035772,220.0688610940851,39.51552706835554,16505.566137791826,23633.28451998993
920.0,26.45675769432921,6.156906334768547,16797.393084406303,23726.81684123197,220.7370840994401,39.98473059386588,16594.31496703482,23763.602793378326
930.0,26.482602181062177,6.193455958418883,16889.21553473906,23856.673395822883,221.40376754678726,40.456111383190965,16683.310030920547,23894.29757940925
940.0,26.508489710494445,6.230066453638326,16981.29665742785,23986.89576836791,222.0689449091132,40.92962209837914,16772.551849213283,24025.369613140385
950.0,26.534405840959973,6.26671739682691,17073.63681021066,24117.484464784964,222.7326484408407,41.40521712478827,16862.040794191864,24156.819421053515
960.0,26.56033670595351,6.303389177784836,17166.23620928757,24248.439790827128,223.39490923490908,41.8828524903619,16951.777096422058,24288.647329217878
970.0,26.586269009709603,6.340062993460278,17259.0949350517,24379.761860187446,224.0557572768596,42.36248578914089,17041.760850493145,24420.85347140291
980.0,26.612190021178563,6.3767208394301145,17352.21293776773,24511.45060252955,224.71522149609376,42.84407610877322,17131.992020701557,24553.437797116145
990.0,26.638087566589068,6.413345499381821,17445.59004318297,24643.505771422922,225.3733298144611,43.32758396180067,17222.47044666665,24686.400079545103
1000.0,26.663950020773402,6.449920532845559,17539.225958057737,24775.92695216403,226.03010919232366,43.812971220513546,17313.195848865413,24819.739923384543
1010.0,26.689766297418387,6.486430261406871,17633.12027560347,24908.713569466974,226.68558567223755,44.300201055175854,17404.16783407451,24953.456772532696
1020.0,26.715525838392125,6.522859753612439,17727.272480818636,25041.864895009596,227.33978442038108,44.78923787543687,17495.385900709847,25087.549917642544
1030.0,26.741218602284953,6.559194808764523,17821.68195571383,25175.3800548229,227.9927297658545,45.28004727475307,17586.849444055002,25222.018503515897
1040.0,26.76683505229117,6.595421939783171,17916.34798441891,25309.258036513624,228.64444523796675,45.77259597765666,17678.557761371423,25356.861536330387
1050.0,26.79236614354759,6.631528355300183,18011.26975816614,25443.49769631147,229.29495360161945,46.266851789714984,17770.510056884443,25492.077890690674
1060.0,26.81780331003433,6.667501941134073,18106.446380144444,25578.097765934042,229.94427689089184,46.76278355003436,17862.705446640095,25627.666316497078
1070.0,26.843138451133903,6.703331241281729,18201.876870220876,25713.056859264045,230.59243644092408,47.26036108617021,17955.14296322909,25763.62544562625
1080.0,26.868363917935426,6.73900543854963,18297.56016952634,25848.373478834437,231.23945291819126,47.75955517131318,18047.821560374694,25899.953798419454
1090.0,26.89347249936231,6.774514334935483,18393.49514490343,25984.046022118648,231.88534634925517,48.26033748362801,18140.740117382742,26036.649789975803
1100.0,26.91845740819404,6.80984833185997,18489.680593214925,26120.0727876237,232.530136148076,48.76268056762889,18233.89744345204,26173.71173624809
1110.0,26.943312267045044,6.844998410337926,18586.115245512257,26256.45198078532,233.17384114196108,49.26655779748241,18327.29228184468,26311.13785994052
1120.0,26.968031094357126,6.879956111168633,18682.797771063793,26393.181719664786,233.81647959622472,49.77194334213333,18420.92331391602,26448.926296207974
1130.0,26.99260829045544,6.914713515215972,18779.726781243327,26530.260040448084,234.4580692376275,50.27881213215652,18514.789163004807,26587.07509815742
1140.0,27.017038623712203,6.949263223840978,18876.900833279593,26667.68490274852,235.09862727666035,50.7871398282423,18608.888398184197,26725.582242152712
1150.0,27.041317216857074,6.983598339541798,18974.31843386819,26805.454194714755,235.73817042873537,51.29690279122802,18703.219537875142,26864.445632924668
1160.0,27.065439533468123,7.017712446848998,19071.978042647424,26943.5657379464,236.37671493434198,51.80807805359347,18797.78105332359,27003.66310848857
1170.0,27.08940136467277,7.051599593517906,19169.878075540117,27082.017292220018,237.0142765782219,52.32064329234266,18892.5713719436,27143.23244487206
1180.0,27.113198816084132,7.085254272053769,19268.01690796358,27220.80656002874,237.65087070761692,52.834576803198246,18987.588880528594,27283.151360656517
1190.0,27.136828294994228,7.118671401600235,19366.392877910203,27359.93119093886,238.2865122496369,53.34985747603893,19082.831928333133,27423.41752133535
1200.0,27.160286497842236,7.151846310216787,19465.004288901357,27499.3887857673,238.92121572779527,53.86646477151508,19178.298830028,27564.028543493117
1210.0,27.183570397972833,7.184774717566418,19563.849412817413,27639.176900583836,239.55499527775544,54.38437869877979,19273.987868531327,27704.98199880936
1220.0,27.206677233696844,7.217452718030842,19662.926492606843,27779.29305054237,240.18786466232987,54.90357979427701,19369.8972977188,27846.275417891386
1230.0,27.229604496663864,7.2498767642668955,19762.233744877467,27919.73471354549,240.8198372857704,55.42404910153201,19466.025345015973,27987.906293940378
1240.0,27.252349920554305,7.282043651214683,19861.76936237306,28060.49933374694,241.45092620738748,55.94576815189081,19562.3702138759,28129.872086255284
1250.0,27.27491147009617,7.313950500564943,19961.531516338437,28201.58432489633,242.0811441545327,56.468718946160216,19658.930086145272,28272.17022357903
1260.0,27.29728733041011,7.345594745690681,20061.51835877641,28342.987073530974,242.71050353497776,56.99288393710119,19755.70312432234,28414.79810729172
1270.0,27.319475896684622,7.37697411704571,20161.72802459981,28484.704942019303,243.33901644872154,57.51824601273118,19852.687473709935,28557.75311445547
1280.0,27.341475764181833,7.408086628030676,20262.158633681895,28626.735271460573,243.9666946992541,58.04478848039452,19949.88126446685,28701.03260071548
1290.0,27.363285718572982,7.438930561325378,20362.808292808506,28769.075384445656,244.593549804306,58.57249505156037,20047.282613560954,28844.63390306217
1300.0,27.384904726601636,7.469504455684554,20463.675097535226,28911.722587683424,245.2195930061095,59.10134982731152,20144.889626627286,28988.55434245893
1310.0,27.406331927071637,7.499807093192916,20564.757133952724,29054.67417449734,245.8448352811956,59.63133728448883,20242.70039973436,29132.791226340025
1320.0,27.4275666221559,7.529837486973938,20666.05248036368,29197.927427196995,246.46928734975205,60.16244226245744,20340.713021062005,29277.341850983437
1330.0,27.44860826902153,7.559594869345977,20767.55920887432,29341.479619328868,247.0929596845633,60.69464995046356,20438.925572493852,29422.203503762983
1340.0,27.469456471765913,7.589078680418187,20869.275386903777,29485.32801781088,247.7158625195542,61.22794587555192,20537.336131127577,29567.37346528412
1350.0,27.490110973658055,7.618288557118116,20971.19907861436,29629.469884955124,248.3380058579571,61.762315891015504,20635.942770706122,29712.849011407998
1360.0,27.51057164967891,7.647224322642129,21073.328346265727,29773.902480382916,248.95939948012193,62.297746165351015,20734.74356297276,29858.62741516779
1370.0,27.530838499353994,7.67588597631921,21175.661251495912,29918.623062836483,249.58005295098576,62.83422317169451,20833.736578953063,30004.705948581708
