Temperature,Cp,Cp_uncertainty,H,H_uncertainty,S,S_uncertainty,G,G_uncertainty
100.0,25.119684432030564,2.4754628870935886,4737.098516107026,8296.065920364857,123.4947299774436,26.68680639039717,4724.749043109281,8295.79921013319
110.0,25.31411252115245,2.448300615597103,4777.385892148204,8366.36090379919,125.63084526880462,26.1790588924028,4763.566499168637,8366.029557648215
120.0,25.497052649325454,2.435758152249677,4817.675154666993,8436.654812997249,127.61842696291323,25.740727951230376,4802.360943431444,8436.257999165888
130.0,25.66893718967971,2.435654811805176,4857.966190952013,8506.9477123797,129.480378526947,25.36041312499167,4841.13374174351,8506.4849956365
140.0,25.83019090575848,2.4458525801204574,4898.258892577804,8577.239663911272,131.23453500377155,25.029351327550682,4879.886057677275,8576.710932027547
150.0,25.981230951736652,2.4643349825905765,4938.5531553300325,8647.530727147023,132.89506393162137,24.740672299148017,4918.618895740289,8646.936133848563
160.0,26.122466873281173,2.4892617169216575,4978.848879135469,8717.820959286972,134.47341321244147,24.488897604496074,4957.333133021478,8717.160879255713
170.0,26.25430061022593,2.5189992766326292,5019.145968008268,8788.11041525925,135.97897111603913,24.269593709875547,4996.029542918542,8787.385408146989
180.0,26.377126503400675,2.552131416510411,5059.444330041214,8858.399147882059,137.41953734779827,24.079125759933582,5034.708813318611,8857.609929195358
190.0,26.49133130941263,2.5874547886531936,5099.743877501235,8928.687208208288,138.8016665837269,23.914479038710343,5073.371560850326,8927.83462552062
200.0,26.597294228473302,2.623964994993532,5140.044527133357,8998.974646235369,140.13092378639737,23.773127051196777,5112.018342376078,8998.059659589866
210.0,26.695386950896165,2.6608373938505383,5180.346200831657,9069.261512258183,141.41207716531977,23.652932416943354,5150.649664626941,9068.285177909022
220.0,26.785973727189226,2.697405837753865,5220.648826889723,9139.547859237404,142.64924621011315,23.55207130373733,5189.265992723498,9138.51131608066
230.0,26.869411464602937,2.7331414421164277,5260.952342083128,9209.833746625714,143.8460167942836,23.46897504117472,5227.867758220445,9208.738204817722
240.0,26.946049849849636,2.767632629299514,5301.256694849958,9280.119246118064,145.00553176852551,23.4022844670641,5266.4553672255115,9278.965977487824
250.0,27.016231494075285,2.800567081538442,5341.5618498145805,9350.40444975564,146.13056305381926,23.350813843136272,5305.029209051126,9349.19477969901
260.0,27.08029209273564,2.8317158346419813,5381.867793843022,9420.689480713561,147.22356959251653,23.313522054100762,5343.5896657489675,9419.424781318672
270.0,27.138560590417796,2.8609195012023694,5422.174543730937,9490.974506949271,148.2867443627817,23.289489414471078,5382.137122752987,9489.656191150072
280.0,27.191359339242737,2.8880764787864663,5462.482155517374,9561.259757699738,149.32205284462324,23.2778988388233,5420.67198072088,9559.88927429161
290.0,27.239004239410228,2.913132936569304,5502.790735302519,9631.545542613994,150.33126473820693,23.278020440243143,5459.194668528439,9630.124371994683
300.0,27.281804851591026,2.936074355176952,5543.100451337955,9701.83227311541,151.31598030711436,23.289198846215488,5497.7056572458205,9700.361923638007
310.0,27.320064472957725,2.9569184002602755,5583.411547064816,9772.120485424915,152.27765240360924,23.310842686284563,5536.205474819696,9770.602490268682
320.0,27.354080171316426,2.9757089284705205,5623.724354706176,9842.410864555379,153.21760499767373,23.34241582858488,5574.694721106922,9840.846779035735
330.0,27.384142774696386,2.992510947746197,5664.039308979045,9912.704268515541,154.13704885432892,23.383430034628326,5613.174082857116,9911.095667767497
340.0,27.410536816557553,3.007406377973704,5704.35696047912,9983.001751940526,155.03709486895258,23.43343877179119,5651.644348223677,9981.350228920564
350.0,27.433540439250063,3.020490480954216,5744.677988305755,10053.304588391016,155.91876546686484,23.492031976615777,5690.106420392352,10051.611752151326
360.0,27.45342526035295,3.0318688491883434,5785.003211531404,10123.614290627622,156.78300439339662,23.558831603513614,5728.561329949781,10121.881764824217
370.0,27.47045620796044,3.0416548609546643,5825.3335991736485,10193.932628261406,157.63068515820976,23.633487825752155,5767.010245665111,10192.162049863873
380.0,27.484891331868823,3.0499675245505173,5865.6702783936,10264.261642296544,158.46261834854735,23.71567578094182,5805.454483421152,10262.45466047245
390.0,27.49698159798769,3.056929647601821,5906.0145407161335,10334.603656206735,159.2795579872291,23.80509277324839,5843.895513101114,10332.761931358187
400.0,27.506970673231713,3.0626662783191034,5946.367846140728,10404.961283315382,160.08220708021977,23.90145586045604,5882.334963308639,10403.086486248832
410.0,27.515094707731944,3.0673033747725764,5986.731825082368,10475.337430373504,160.87122247373014,24.004499766716417,5920.774623868138,10473.431241586952
420.0,27.52158212053346,3.070966665952591,6027.1082781471905,10545.735297343545,161.6472191207244,24.113975072035057,5959.216446116486,10543.799406417731
430.0,27.526653394105978,3.0737806748118217,6067.499173805093,10616.15837349813,162.41077384038792,24.229646637799245,5997.662541053726,10614.194478580412
440.0,27.530520882064856,3.075867878855204,6107.906644070261,10686.610430028159,163.16242864076884,24.351292234354222,6036.115175468322,10684.620237399331
450.0,27.533388633545563,3.0773479883213306,6148.332978339666,10757.095509423214,163.90269366384842,24.47870134210072,6074.576766190934,10755.080733138884
460.0,27.535452236745627,3.078337325723743,6188.780615569455,10827.617911939496,164.63204980323957,24.61167410206965,6113.049872659965,10825.580273538686
470.0,27.536898683281635,3.0789482936051273,6229.252134989781,10898.182179506734,165.35095103719834,24.75002039562108,6151.537188002298,10896.123407781151
480.0,27.537906254229767,3.079288919895067,6269.750245571195,10968.79307744753,166.0598265133687,24.893559035967467,6190.041528844778,10966.71490826566
490.0,27.538644428040136,3.0794624723280224,6310.277774460926,11039.455574391637,166.7590824164311,25.04211705676056,6228.5658240768735,11037.35975057226
500.0,27.539273809946195,3.0795671350367724,6350.837654606282,11110.174820765895,167.449103645416,25.195529085099697,6267.1131027835745,11108.063091996048
510.0,27.539946082027285,3.0796957417403195,6391.432911776293,11180.956126229688,168.13025532371995,25.353636788098072,6305.686481561195,11178.830249022372
520.0,27.540803972723346,3.079935560941666,6432.066651182364,11251.804936407802,168.80288416170958,25.516288383640433,6344.289151418275,11249.666674094986
530.0,27.541981244334853,3.080368129280391,6472.742043885299,11322.726809248898,169.46731968912124,25.683338207234417,6382.924364450063,11320.577932005504
540.0,27.543602696860404,3.081069129686179,6513.4623131604485,11393.727391310642,170.12387537218382,25.85464632793472,6421.595420459469,11391.569676205418
550.0,27.545784186416114,3.0821083112873,6554.230720975649,11464.812394242426,170.77284962844092,26.030078207239704,6460.305653680006,11462.647625311647
560.0,27.54863265643565,3.0835494481770573,6595.0505547187295,11535.987571705422,171.41452675058207,26.2095043956479,6499.058419738403,11533.817540045526
570.0,27.552246179854272,3.085450334163175,6635.925114293457,11607.258696938212,172.04917774915697,26.392800262241128,6537.857082976437,11605.085200813548
580.0,27.556714010527013,3.087862810552587,6676.857699684899,11678.631541144952,172.67706112281536,26.579845753245092,6576.705004233667,11676.456386106891
590.0,27.562116642208203,3.090832823886477,6717.851599078153,11750.111852853168,173.29842356365003,26.77052517602687,6615.605529175599,11747.936851866954
600.0,27.568525873520628,3.094400510366899,6758.910077598048,11821.705338359661,173.9135006043018,26.96472700542824,6654.561977235466,11819.532311935418
610.0,27.57600487745976,3.0986003035331873,6800.036366722408,11893.41764335664,174.52251721269144,27.162343709717927,6693.577631222666,11891.248419681144
620.0,27.584608274105413,3.1034610615776295,6841.233654407436,11965.25433580567,175.1256883395499,27.36327159378082,6732.655727636915,11963.090750871435
630.0,27.594382205345752,3.109006210556207,6882.505075951196,12037.220890104969,175.72321942332167,27.567410657454722,6771.799447714504,12035.064787833498
640.0,27.60536441055158,3.1152538996689008,6923.853705609949,12109.322672575869,176.3153068564926,27.77466446718209,6811.011909221794,12107.17590493183
650.0,27.61758430227012,3.1222171647679913,6965.282548972025,12181.564928276677,176.90213841693827,27.984940039369377,6850.296159001015,12179.429355370063
660.0,27.631063041133714,3.12990409631134,7006.794536085346,12253.952769137126,177.48389366749194,28.19814773404379,6889.655166264802,12251.830259310433
670.0,27.645813609298973,3.1383180081154367,7048.392515327198,12326.491163393432,178.06074432658227,28.414201157571622,6929.091816628388,12324.383593291075
680.0,27.661840881843716,3.147457603480876,7090.079247998616,12399.184926293026,178.63285461248728,28.633017073354026,6968.608906862125,12397.09418091037
690.0,27.679141695652902,3.1573171355582015,7131.857403620546,12472.038712029038,179.20038156348195,28.854515319551712,7008.209140341743,12469.966684738423
700.0,27.697704915418832,3.167886559188481,7173.729555904702,12545.057006856925,179.76347533592212,29.078618733006834,7047.895123169556,12543.005599408374
710.0,27.717511496466503,3.1791516718820416,7215.698179368754,12618.24412334021,180.3222794820997,29.305253078635065,7087.669360936463,12616.215245834428
720.0,27.738534544190742,3.191094242079481,7257.765646562997,12691.604195667638,180.87693120952065,29.534346983651933,7127.534256092143,12689.599766499223
730.0,27.76073936995961,3.203692123360001,7299.93422587379,12765.141175981005,181.42756162309547,29.765831876077687,7167.4921058889295,12763.16312174976
740.0,27.784083543396672,3.216919353809846,7342.206079868007,12838.858831650956,181.97429595158962,29.999641927035505,7207.54510086383,12836.909087039432
750.0,27.808516941006623,3.230746240326767,7384.583264141999,12912.760743436822,182.51725375955056,30.23571399641997,7247.695323822336,12910.841251052263
760.0,27.833981791151235,3.2451394282017056,7427.067726638586,12986.85030446656,183.05654914581976,30.473987581566547,7287.9447492877625,12984.963014645551
770.0,27.860412715420345,3.260061956877132,7469.661307395686,13061.13071997302,183.59229092963255,30.714404768601014,7328.295243379869,13059.277590547312
780.0,27.887736766472393,3.275473303322097,7512.365738690968,13135.605007724167,184.12458282522192,30.956910186189045,7368.748564087296,13133.78800374611
790.0,27.915873462444615,3.2913294149808268,7555.18264554765,13210.275999086092,184.65352360576003,31.20145096144264,7409.3063618991,13208.497092512416
800.0,27.944734818052392,3.307582734738886,7598.113546567723,13285.14634065977,185.17920725740044,31.44797667777236,7449.970180761802,13283.407509992383
810.0,27.97422537251329,3.324182220805989,7641.159855060202,13360.21849643478,185.7017231241178,31.696439334501928,7490.741459329667,13358.521726317396
820.0,28.004242214442776,3.3410733648368973,7684.322880433335,13435.494750405527,186.22115604398516,31.946793308085798,7531.621532477267,13433.84203117507
830.0,28.034675003876814,3.3581982120031,7727.603829821271,13510.977209598315,186.73758647747587,32.19899531479233,7572.611633044965,13509.370536790108
840.0,28.065405991581784,3.3754953870926108,7771.003809917249,13586.667807460293,187.25109062832908,32.45300437473282,7613.712893789452,13585.109181266036
850.0,28.0963100358152,3.392900131059466,7814.523828987022,13662.568307564197,187.76174055747663,32.70878177713322,7654.926349513168,13661.059732241976
860.0,28.127254616700984,3.4103443527768342,7858.1647990378115,13738.680307585635,188.26960429048899,32.966291046759274,7696.252939347991,13737.223790821135
870.0,28.158099848382278,3.4277567010789265,7901.927538119768,13815.005243512564,188.7747459189632,33.225497911417975,7737.69350917027,13813.60279573079
880.0,28.188698489111573,3.445062662519201,7945.812772738513,13891.544394049377,189.2772256962434,33.486370270469116,7779.248814125818,13890.198027676244
890.0,28.218895949434923,3.4621846906413745,7989.821140358935,13968.29888518093,189.77710012783723,33.748878164289074,7820.919521245159,13967.01061385411
900.0,28.248530298621134,3.479042372969925,8033.953191981917,14045.269694864324,190.2744220568609,34.012993744638074,7862.706212130742,14044.041532592868
910.0,28.27743226948229,3.4955526423989243,8078.209394777202,14122.457657819077,190.76924074482653,34.27869124588851,7904.609385699411,14121.291618091253
920.0,28.305425261724928,3.511630040209737,8122.590134756987,14199.863470388655,191.26160194805823,34.545946957077916,7946.629460964775,14198.761565227649
930.0,28.3323253439654,3.5271870386038278,8167.095719476275,14277.487695448874,191.7515479900067,34.81473919475557,7988.766779845568,14276.451934415925
940.0,28.357941254535497,3.5421344314187992,8211.726380747179,14355.330767340794,192.23911782971152,35.085048276596595,8031.02160998725,14354.363156485393
950.0,28.382074401197684,3.5563818026315546,8256.482277355795,14433.39299680804,192.72434712664324,35.35685649576075,8073.394147585485,14432.49553756492
960.0,28.404518859882504,3.569838083369587,8301.363497771188,14511.674575920375,193.2072683021426,35.63014809597744,8115.884520201131,14510.84926395298
970.0,28.42506137255326,3.582412209480259,8346.370062837346,14590.17558296739,193.68791059765817,35.90490924734043,8158.492789557616,14589.424406957602
980.0,28.443481344296345,3.594013893280609,8391.501928439811,14668.895987307807,194.16630012997155,36.18112802279992,8201.218954312439,14668.220927691727
990.0,28.459550839729044,3.604554524959833,8436.758988139733,14747.835654161743,194.64245994358595,36.45879437534044,8244.062952795584,14747.238681811257
1000.0,28.473034578809585,3.6139482212657326,8482.141075768941,14826.994349334624,195.116410060443,36.737900115836176,8287.024665708497,14826.477424184694
1010.0,28.510273758516995,3.634623191622349,8527.648098506239,14906.371669375643,195.58829714915555,37.01833753269493,8330.103918385592,14905.936813707704
1020.0,28.547396237193432,3.655237900696103,8573.279928268956,14985.967109547631,196.05828076576879,37.29998905228176,8373.30048188787,14985.61641866689
1030.0,28.58439744115472,3.6757889353588786,8619.036265647952,15065.78014733666,196.52639682764035,37.582833744597465,8416.614076915483,15065.515720375684
1040.0,28.621273088733545,3.6962730890853557,8664.916763989357,15145.810177370606,196.99268023102664,37.866851141082144,8460.044376549089,15145.634117343956
1050.0,28.65801913516023,3.716687333345839,8710.921031773012,15226.056515652821,197.45716483050907,38.152021269909945,8503.591008700978,15225.970929473473
1060.0,28.6946317662358,3.7370288122427837,8757.048634957047,15306.518403670447,197.91988348070618,38.43832464134753,8547.253558467499,15306.525402164665
1070.0,28.731107391840034,3.7572948372139905,8803.299099258373,15387.195012390415,198.3808680759671,38.72574223361283,8591.03157041709,15387.296710311088
1080.0,28.767442639316364,3.777482881802294,8849.67191236755,15468.085446140489,198.84014958815763,39.01425547921225,8634.924550812342,15468.283962178879
1090.0,28.80363434677161,3.797590576492129,8896.166526097106,15549.188746373664,199.29775810264374,39.30384625173608,8678.931969765223,15549.486203169587
1100.0,28.839679556324427,3.8176157036137823,8942.782358462517,15630.503895314612,199.75372285257026,39.594496853093126,8723.053263324688,15630.902419465046
1110.0,28.875575507333167,3.8375561923166033,8989.518795695585,15712.029819487623,200.20807225152737,39.88619000116677,8767.287835496387,15712.531541553753
1120.0,28.911319629630185,3.857410113612703,9036.375194190081,15793.76539312589,200.66083392469147,40.178908817875886,8811.635060194427,15794.372447638621
1130.0,28.94690953678687,3.877175675492963,9083.350882379887,15875.709441462499,201.1120347385217,40.47263681762477,8856.094283125358,15876.423966926432
1140.0,28.982343019430743,3.8968512181173955,9130.445162549997,15957.860743903788,201.56170082908923,40.767357896127194,8900.664823604835,15958.684882799706
1150.0,29.01761803863336,3.9164352090819845,9177.65731258107,16040.218037086262,202.00985762911142,41.06305631959075,8945.34597630759,16041.153935872171
1160.0,29.05273271938543,3.9359262387642286,9224.986587628262,16122.780017818335,202.45652989375867,41.35971671424825,8990.137012951502,16123.82982692905
1170.0,29.087685344173416,3.9553230157496544,9272.4322217353,16205.545345908635,202.9017417252978,41.65732405622303,9035.037183916704,16206.711219753977
1180.0,29.12247434666973,3.9746243623414914,9319.99342938491,16288.512646882735,203.345516596633,41.95586366171696,9080.045719800883,16289.796743844388
1190.0,29.157098305547112,3.993829210155727,9367.669406986714,16371.680514590365,203.78787737380046,42.25532117750891,9125.161832911888,16373.084997017417
1200.0,29.19155593842575,4.012936595803542,9415.45933430397,16455.047513705438,204.22884633747054,42.55568257175337,9170.384718699006,16456.574547908633
1210.0,29.225846095960577,4.031945656663092,9463.362375820472,16538.612182121182,204.6684452035081,42.856934125068506,9215.713557124225,16540.263938365966
1220.0,29.259967756074566,4.050855626742456,9511.377682049011,16622.373033242984,205.10669514263856,43.159062421903506,9261.147513974991,16624.15168574136
1230.0,29.293920018342718,4.069665832635265,9559.504390782973,16706.328558181445,205.54361679926498,43.462054342176074,9306.685742119878,16708.236285082698
1240.0,29.32770209853029,4.0883756895705385,9607.74162829251,16790.477227848456,205.97923030947817,43.76589705317037,9352.327382708758,16792.51621122874
1250.0,29.36131332328791,4.10698469755787,9656.088510466878,16874.81749495882,206.41355531830038,44.070578001687146,9398.071566319004,16876.9899208098
1260.0,29.394753125005273,4.125492437629038,9704.544143904544,16959.347795940474,206.8466109962003,44.37608490643698,9443.917414049332,16961.655854156834
1270.0,29.42802103682419,4.143898568176779,9753.107626952587,17044.066552755747,207.27841605491528,44.682405750668956,9489.864038562846,17046.512437121866
1280.0,29.46111668781147,4.162202821391397,9801.778050697068,17128.972174636772,207.70898876261435,44.9895287750268,9535.910545080924,17131.55808281241
1290.0,29.49403979829087,4.180404999795507,9850.554499905887,17214.063059737644,208.13834695843457,45.29744247062463,9582.056032329509,17216.791193242778
1300.0,29.5267901753335,4.1985049728771395,9899.436053925798,17299.33759670621,208.56650806642045,45.60613557233557,9628.299593439453,17302.210160905055
1310.0,29.559367708404956,4.216502673821174,9948.421787535057,17384.79416617815,208.99348910889546,45.91559705228565,9674.640316802404,17387.813370262404
1320.0,29.591772365167493,4.2343980963388255,9997.510771753374,17470.431142196237,209.41930671929242,46.22581611354676,9721.077286883905,17473.59919916756
1330.0,29.62400418743494,4.252191291594853,10046.702074610614,17556.2468935573,209.84397715446894,46.53678218402159,9767.60958499517,17559.566020209142
1340.0,29.656063287277842,4.2698823652318305,10095.994761875814,17642.239785089674,210.26751630653135,46.84848491051469,9814.236290025063,17645.71220198839
1350.0,29.687949843276037,4.287471474490755,10145.387897747994,17728.408178863694,210.68993971419107,47.160914152983246,9860.956479133838,17732.036110329063
1360.0,29.7196640969156,4.304958825427074,10194.880545510214,17814.750435337763,211.11126257367474,47.47405997896211,9907.769228410016,17818.53610942295
1370.0,29.75120634912705,4.322344670221077,10244.471768148307,17901.26491444257,211.53149974920862,47.78791265815661,9954.673613491892,17905.21056291352
1380.0,29.782576956961293,4.339629304581418,10294.160628935695,17987.949976605843,211.9506657830973,48.102462657198814,10001.668710155018,17992.057834920135
