Temperature,Cp,Cp_uncertainty,H,H_uncertainty,S,S_uncertainty,G,G_uncertainty
100.0,29.748858005606046,3.0,5327.442477069196,7505.857132586311,194.35168970321962,19.404639538547343,5308.007308098874,7505.900307722779
110.0,29.748862009581117,3.0,5410.587126498044,7623.441423447345,196.23848254432056,19.681998106767526,5389.000893418169,7623.350963506539
120.0,29.74887797950467,3.0,5493.731864377985,7741.0258393971135,198.00452597873937,19.935206793651293,5469.971321260537,7740.7971539436085
130.0,29.7489278567337,3.0,5576.876905222645,7858.610683803697,199.6691754480642,20.16813668751626,5550.919912414397,7858.240746910878
140.0,29.74905664943229,3.0,5660.022789486713,7976.196720985446,201.24747865055014,20.383797328013447,5631.848142475636,7975.683829216068
150.0,29.749342767375296,3.0,5743.170666621913,8093.785576512577,202.75136860637866,20.58457531917915,5712.757961330957,8093.129158415394
160.0,29.74990609749961,3.0,5826.322672463208,8211.380270911863,204.19047150181032,20.772395898265483,5793.652197022918,8210.580733965
170.0,29.750911517955636,3.0,5909.4823660344655,8328.985837403126,205.57266955647503,20.94883550919842,5874.535012209864,8328.044442752775
180.0,29.752566782780626,3.0,5992.655173644694,8446.609949946158,206.90450280449863,21.115202158803143,5955.412363139884,8445.52870818554
190.0,29.75511507102442,3.0,6075.848784409251,8564.263482592183,208.19146183902922,21.272593965709262,6036.292406659835,8563.045065786753
200.0,29.758823510212565,3.0,6159.073449756657,8681.960933050448,209.438204887552,21.42194257541382,6117.185808779147,8680.608599571604
210.0,29.763969472422865,3.0,6242.342155467958,8799.720665988623,210.6487212474613,21.564045847395683,6198.105924005991,8798.238195666665
220.0,29.770826450545453,3.0,6325.670653165916,8917.564957565251,211.82645601200875,21.699592800305165,6279.068832843273,8915.956595337242
230.0,29.779651011554037,3.0,6409.07735488485,9035.519846328974,212.9744064389323,21.82918288568988,6360.093241403895,9033.790253021893
240.0,29.79067186504699,3.0,6492.58310708693,9153.614813629323,214.09519728032916,21.95334105396925,6441.20025973965,9151.76902284217
250.0,29.804081612813825,3.0,6576.210868480561,9271.882327983098,215.19114033130512,22.07252966416444,6522.413083397735,9269.925708255505
260.0,29.82003134019057,3.0,6659.985319552008,9390.357292868699,216.26428202397958,22.187158002699334,6603.756606225773,9388.295514478825
270.0,29.838627908132615,3.0,6743.932431728542,9509.07643743081,217.31644188158134,22.297589974219687,6685.2569924205145,9506.915443274025
280.0,29.859933610167932,3.0,6828.079021621608,9628.077686085031,218.34924392119808,22.404150382143037,6766.941233323672,9625.823666162622
290.0,29.883967756704493,3.0,6912.452311862653,9747.399537445957,219.36414256646646,22.507130111196712,6848.836710518378,9745.058906550836
300.0,29.910709719147462,3.0,6997.079515468517,9867.080476531079,220.36244424516974,22.606790446937367,6930.970782194965,9864.659854762484
310.0,29.940102985788567,3.0,7081.987456062826,9987.15843767272,221.34532556169523,22.703366710242463,7013.3704051387,9984.664633448885
320.0,29.9720598311198,3.0,7167.202232029755,10107.670329559734,222.31384872287742,22.7970713424789,7096.061800438434,10105.110324829511
330.0,30.006466264949488,3.0,7252.748929009191,10228.651628644275,223.26897473820924,22.888096545545263,7179.0701673455815,10226.032566027478
340.0,30.043186996611283,3.0,7338.651382150817,10350.136042918282,224.21157479752458,22.976616557408335,7262.4194467196585,10347.465214531005
350.0,30.082070215560577,3.0,7424.931987231925,10472.155244793743,225.14244014070528,23.062789626044477,7346.132133182678,10469.440082539624
360.0,30.122952048618885,3.0,7511.61155805863,10594.73866943755,226.06229066714755,23.146759731332928,7430.229133418457,10591.986736569135
370.0,30.16566060409627,3.0,7598.709226430416,10717.913373300002,226.9717824820601,23.228658094315435,7514.729666912053,10715.132357075967
380.0,30.21001955351361,3.0022943900737475,7686.242380260545,10841.70394660386,227.87151453802218,23.308604505507855,7599.651204736097,10838.901651887982
390.0,30.25585123310561,3.011460725992147,7774.226635116556,10966.132473096523,228.7620345005555,23.386708498014514,7685.009441661339,10963.316816762837
400.0,30.302979270675728,3.020886333506171,7862.675834390064,11091.218530290158,229.6438439434952,23.463070386602453,7770.818296812666,11088.39753631572
410.0,30.351230759892253,3.0305366313494755,7951.602073448597,11216.979223617569,230.51740296200717,23.537782190304853,7857.089938234174,11214.161018759622
420.0,30.40043801500343,3.0403780823717117,8041.015743401767,11343.429248326893,231.38313427694774,23.610928453292967,7943.834827005449,11340.622058295166
430.0,30.450439945385433,3.0503784684481117,8130.925590479148,11470.580973454615,232.2414268929781,23.68258697649904,8031.061776915168,11467.79311950184
440.0,30.501083092366855,3.060507097844396,8221.338787429157,11598.444542798827,233.092639363746,23.75282947065262,8118.778026109108,11595.684438663566
450.0,30.552222371292473,3.07073495362952,8312.261013776835,11727.02798842087,233.9371027100208,23.82172213990758,8206.989317557325,11724.304137566487
460.0,30.603721560532108,3.081034791477446,8403.696542203152,11856.337352804117,234.77512303054033,23.889326204011486,8295.699985609104,11853.658345906144
470.0,30.65545357669734,3.091381194710493,8495.648328713925,11986.376816372089,235.60698384021345,23.95569836594611,8384.913046309026,11983.751329013687
480.0,30.707300572156406,3.1017505938023064,8588.118104643785,12117.148827601699,236.43294816600934,24.020891231105285,8474.6302895241,12114.585618143321
490.0,30.759153887381462,3.1121212568473173,8681.106468883865,12248.65423345291,237.25326042719405,24.084953683342224,8564.852371274541,12246.162141047722
500.0,30.8109138869763,3.122473256766285,8774.612979028869,12380.89240827015,238.06814812342395,24.147931222588205,8655.578904967157,12378.48035100156
510.0,30.86248970459502,3.1327884202900296,8868.636240409318,12513.861379692931,238.87782335148137,24.20986626819969,8746.808550500062,12511.538352814578
520.0,30.913798918494066,3.1430502630698385,8963.173992209455,12647.557950444947,239.68248416906704,24.270798431716823,8838.53910044154,12645.333024706897
530.0,30.964767176237224,3.15324391461847,9058.223190072222,12781.977815155156,240.4823158219921,24.33076476230184,8930.767562686566,12779.860135203013
540.0,31.01532778413832,3.163356036198689,9153.78008476317,12917.115671605352,241.27749184929152,24.38979996776172,9023.490239164554,12915.114454441347
550.0,31.06542127439694,3.1733747342504124,9249.840296607463,13052.965325999985,242.06817507917623,24.447936613738662,9116.702800313917,13051.089859497188
560.0,31.114994960560026,3.1832894714830298,9346.398885531897,13189.519792020528,242.854518527325,24.505205303368417,9210.400355156595,13187.779433483029
570.0,31.1640024899151,3.1930909773540446,9443.450416639796,13326.771383562394,243.63666620776058,24.561634839455536,9304.577516901374,13325.175558325675
580.0,31.212403399671018,3.202771159305229,9540.989021323712,13464.711801161335,244.41475386544226,24.617252370991867,9399.228464081754,13463.270001228253
590.0,31.26016268228703,3.212323015828431,9639.00845398179,13603.332212202506,245.18890963871718,24.672083525646855,9494.346997294948,13602.053994911255
600.0,31.30725036404513,3.2217405521800515,9737.502144450678,13742.623325071783,245.95925465889553,24.726152529682523,9589.926591655341,13741.518311792961
610.0,31.35364109989974,3.2310186993509733,9836.463246303421,13882.57545745932,246.72590359343013,24.77948231658944,9685.960445111428,13881.653332319875
620.0,31.399313786757205,3.2401532367224655,9935.88468118653,14023.178599061604,247.48896513848774,24.83209462560097,9782.441522800667,14022.449107693981
630.0,31.44425119661301,3.2491407186936265,10035.759179388206,14164.422468953622,248.24854246607802,24.884010091119023,9879.362597634577,14163.895417268734
640.0,31.488439630384732,3.2579784054479712,10136.079316840947,14306.296567918422,249.00473363035434,24.935248323974285,9976.71628731752,14305.981820901521
650.0,31.531868592804535,3.2666641979319317,10236.837548767613,14448.790226029845,249.7576319372098,24.985827985345374,10074.495088008425,14448.69770655853
660.0,31.574530488358796,3.2751965770427844,10338.02624018184,14591.892645786633,250.5073262808523,25.03576685407388,10172.691404836478,14592.03233347045
670.0,31.616420337968812,3.283574546964787,10439.637693451888,14735.592941093575,251.25390145065444,25.08508188803431,10271.297579479951,14735.974871134827
680.0,31.657535515881804,3.291797582547386,10541.664173132864,14879.880172379593,251.99743841122216,25.13378928014785,10370.305915013234,14880.514434455079
690.0,31.697875506074304,3.299865580585886,10644.09792826607,15024.743378133779,252.7380145583209,25.1819045095676,10469.70869822083,15025.64011529724
700.0,31.73744167734936,3.3077788148408973,10746.931212336573,15170.171603129647,253.4757039530171,25.229442388506836,10569.498219569461,15171.341010734785
710.0,31.776237076227765,3.3155378946165786,10850.156301071476,15316.153923595713,254.21057753614866,25.276417105133152,10669.66679102081,15317.606248239663
720.0,31.8142662366825,3.3231437267075252,10953.765508252156,15462.679469577355,254.94270332501833,25.322842262907077,10770.206761858142,15464.425008064502
730.0,31.851535005740075,3.3305974805190406,11057.751199703955,15609.737444721233,255.67214659400537,25.36873091670449,10871.11053269033,15611.786543047301
740.0,31.888050383966487,3.337900556164323,11162.105805617168,15757.3171436998,256.39897004061964,25.414095606027345,10972.37056778711,15759.680196056124
750.0,31.923820379864793,3.345054555343984,11266.82183134323,15905.407967479407,257.1232339383625,25.45894838557591,11073.979405889459,15908.095415277267
760.0,31.958853877232535,3.3520612548175315,11371.891866800459,16053.999436622042,257.8449962776213,25.503300853427678,11175.929669629468,16057.02176753698
770.0,31.99316051455711,3.3589225822824478,11477.308594614318,16203.081202797393,258.5643128957006,25.54716417704354,11278.214073684629,16206.448949833362
780.0,32.026750575563604,3.3656405944837453,11583.064797108127,16352.643058669213,259.28123759697894,25.590549117299208,11380.825431782485,16356.366799242445
790.0,32.05963489006999,3.372217457385022,11689.153362251458,16502.674946307616,259.99582226408427,25.63346605072027,11483.756662662832,16506.765301350006
800.0,32.09182474434853,3.378655428240731,11795.567288665283,16653.166964267417,260.7081169608897,25.675924990081356,11587.00079509657,16657.63459734931
810.0,32.12333180023682,3.3849568394183893,11902.299689775064,16804.109373461517,261.41817002805305,25.717935603514032,11690.55097205234,16808.96498993361
820.0,32.15416802228762,3.391124083828549,12009.343797195757,16955.492601947983,262.1260281717517,25.759507232253767,11794.40045409492,16960.74694810221
830.0,32.18434561229197,3.3971596018294195,12116.69296342571,17107.307248739824,262.83173654620157,25.800648907143735,11898.542622092364,17112.97111098894
840.0,32.21387695055449,3.403065869481923,12224.34066392001,17259.54408673714,263.5353388304909,25.841369364001594,12002.970979302398,17265.628290812765
850.0,32.24277454334284,3.4088453880395932,12332.280498607974,17412.19406487317,264.2368773002097,25.881677057945353,12107.679152902794,17418.70947504207
860.0,32.27105097597501,3.4145006745660265,12440.506192913734,17565.24830955762,264.93639289430854,25.921580176765122,12212.660895024628,17572.205827855876
870.0,32.29871887104771,3.420034253580567,12549.011598333782,17718.698125493444,265.63392527758026,25.961086653419468,12317.910083342287,17726.108690978264
880.0,32.32579085134691,3.425448649640407,12657.790692620592,17872.534995936512,266.3295128991204,26.000204177727497,12423.420721269367,17880.409583955425
890.0,32.35227950701711,3.430746380774447,12766.837579616986,18026.75058246138,267.0231930470907,26.038940207321556,12529.186937805074,18035.100203938408
900.0,32.3781973665996,3.4359299526909455,12876.146488781827,18181.336724290508,267.7150019000769,26.077301977918804,12635.202987071758,18190.172425029108
910.0,32.403556871581344,3.4410018536872933,12985.711774443964,18336.28543723918,268.4049745753098,26.115296512965372,12741.463247580432,18345.61829724156
920.0,32.42837035412535,3.4459645501960945,13095.527914817802,18491.588912323332,269.0931451739891,26.152930632701242,12847.96222125773,18501.43004512585
930.0,32.45265001768101,3.4508204829072264,13205.589510810845,18647.23951407312,269.7795468239341,26.190210962690237,12954.694532264586,18657.60006609745
940.0,32.476407920198056,3.455572063410637,13315.891284650563,18803.22977859106,270.4642117197583,26.227143941855072,13061.65492563399,18814.120928510754
950.0,32.49965595969142,3.460221671309308,13426.428078355362,18959.552411389624,271.1471711607545,26.263735830054312,13168.838265752645,18970.98536951178
960.0,32.522405861926075,3.4647716517562404,13537.194852071983,19116.20028503998,271.8284555866559,26.299992715234595,13276.239534708793,19128.186292701677
970.0,32.544669170011154,3.4692243133732563,13648.18668229947,19273.166436660307,272.5080946114268,26.33592052018878,13383.853830526388,19285.71676563942
980.0,32.5664572357109,3.4735819265132046,13759.3987600178,19430.444065269257,273.1861170552223,26.371525008947884,13491.676365303683,19443.570017209437
990.0,32.58778121229739,3.4778467218305034,13870.826388737492,19588.02652902772,273.8625509746456,26.406811792832542,13599.702463272593,19601.739434877083
1000.0,32.60865204878554,3.482020889128132,13982.46498248477,19745.90734238938,274.53742369141986,26.441786336187388,13707.92755879335,19760.21856185268
1010.0,32.629080485405154,3.4861065764520562,14094.310063735367,19904.080173178696,275.21076181958233,26.476453961819875,13816.347194297588,19919.001094182582
1020.0,32.64907705017838,3.4901058894067,14206.357261308714,20062.538839612822,275.88259129129995,26.51081985616341,13924.957018191588,20078.08087778394
1030.0,32.66865205648247,3.4940208906675196,14318.602308232876,20221.277307282173,276.55293738139704,26.544889074182823,14033.752782730036,20237.451905437723
1040.0,32.68781560148956,3.497853599668937,14431.04103958963,20380.289686102922,277.2218247306786,26.578666544039123,14142.730341869725,20397.108313753393
1050.0,32.70657756538447,3.501605992447919,14543.669390347894,20539.57022725297,277.8892773681264,26.612157071528692,14251.885649111362,20557.04438011677
1060.0,32.72494761127162,3.505280001625348,14656.483393192837,20699.11332010189,278.5553187320396,26.645365344311337,14361.214755336876,20717.254519631522
1070.0,32.74293518568994,3.508877516509012,14769.479176357187,20858.91348914388,279.2199716901842,26.678295935940255,14470.71380664869,20877.733282063426
1080.0,32.7605495196628,3.5124003833035853,14882.6529614604,21018.965390941943,279.8832585590127,26.710953309705946,14580.379042216666,21038.475348795495
1090.0,32.77779963021682,3.515850405414389,14996.001061360748,21179.263811090237,280.5452011220101,26.743341822305435,14690.206792137758,21199.475529801064
1100.0,32.794694322309844,3.5192293438329934,15109.519878024652,21339.803661200873,281.20582064721805,26.77546572734703,14800.193475312712,21360.728760641006
1110.0,32.81124219111432,3.522538917593888,15223.205900417148,21500.57997592059,281.8651379039846,26.807329178700332,14910.335597343725,21522.230099490556
1120.0,32.827451624607484,3.525780804292522,15337.055702416746,21661.587909981918,282.5231731789851,26.838936233700437,15020.629748456284,21683.97472420035
1130.0,32.84333080642476,3.5289566406559767,15451.065940757548,21822.822735292866,283.1799462915553,26.87029085621448,15131.07260144809,21845.957929395776
1140.0,32.85888771893689,3.532068023158403,15565.233353001031,21984.27983806864,283.83547660837473,26.901396919578367,15241.660909667484,22008.175123618017
1150.0,32.87413014651576,3.535116508674177,15679.554755539599,22145.954716008197,284.4897830575371,26.93225820941084,15352.391505023432,22170.621826509774
1160.0,32.889065678957024,3.5381036151624294,15794.027041633582,22307.84297551816,285.14288414204,26.962878426311416,15463.261296028817,22333.293666048037
1170.0,32.90370171503128,3.5448769201949486,15908.64717948314,22469.94032898608,285.79479795272596,26.993261188448606,15574.26726587845,22496.18637582599
1180.0,32.91804546613839,3.565162047545922,16023.412210336195,22632.242592104638,286.4455421807033,27.023410034044073,15685.406470562964,22659.295792385663
1190.0,32.932103960042205,3.58504376029124,16138.319246633351,22794.745681248172,287.09513412927424,27.05332842375827,15796.676037019515,22822.61785260261
1200.0,32.94588404466559,3.6045317428562744,16253.365470190465,22957.44561090245,287.7435907253953,27.083019742982476,15908.07316131999,22986.148591123667
1210.0,32.95939239192764,3.6236354307595158,16368.548130419389,23120.338491148406,288.39092853069366,27.112487304042148,16019.59510689725,23149.884137858473
1220.0,32.972635501607215,3.6423640160763604,16483.86454258724,23283.420525200385,289.03716375206216,27.141734348315847,16131.239202809722,23313.820715525235
1230.0,32.98561970521852,3.660726452920084,16599.312086114373,23446.688006999117,289.68231225185343,27.17076404827411,16243.002842044592,23477.95463725107
1240.0,32.998351169886355,3.6787314629222085,16714.888202911105,23610.13731885947,290.3263895576925,27.199579509441914,16354.883479859567,23642.282304226916
1250.0,33.0108359022099,3.6963875406967603,16830.590395753166,23773.764929173023,290.96941087192624,27.228183772288663,16466.878632163258,23806.800203417035
1260.0,33.02307975210542,3.7137029592746686,16946.416226695666,23937.56739016504,291.61139108072757,27.256579814048933,16578.98587393395,23971.50490532284
1270.0,33.03508841661945,3.7306857754964002,17062.363315525374,24101.54133570569,292.2523447628697,27.442304011756935,16691.20283767653,24136.39306180062
1280.0,33.04686744370501,3.747343835352363,17178.429338250917,24265.683479174855,292.8922861981859,27.95150371718141,16803.52721191724,24301.46140393285
1290.0,33.05842223595459,3.7636847792621126,17294.612025630562,24429.990611380104,293.5312293757297,28.46211517228633,16915.95673973587,24466.70673995235
1300.0,33.069758054284236,3.779716047284499,17410.909161737083,24594.459598527097,294.1691880016483,28.974118993652358,17028.48921733494,24632.125953218845
1310.0,33.08088002156431,3.7954448842522517,17527.31858255916,24759.087380241675,294.8061755067829,29.487496187201923,17141.122492645274,24797.71600024691
1320.0,33.091793126192634,3.810878344825222,17643.838174638884,24923.870967643,295.4422050540065,30.002228137821444,17253.854463967593,24963.473908784923
1330.0,33.1025022256069,3.8260232984576756,17760.465873744604,25088.80744146668,296.0772895453123,30.518296599337052,17366.683078649337,25129.396775943795
1340.0,33.11301204973351,3.840886434275695,17877.19966357866,25253.893950237212,296.71144162866256,31.03568368482904,17479.606331796254,25295.481766374884
1350.0,33.12332720437064,3.8554742658614956,17994.0375745192,25419.12770848866,297.34467370460806,31.554371857270336,17592.62226501798,25461.726110495976
1360.0,33.13345217450363,3.86979313594219,18110.977682395587,25584.50599503282,297.97699793268805,32.074343920475606,17705.72896520713,25628.12710276467
1370.0,33.14339132755149,3.8838492209809803,18228.018107296506,25750.02615127361,298.6084262376198,32.595583010347895,17818.924563350967,25794.68209999779
1380.0,33.15314891654343,3.897648535669437,18345.157012410265,25915.685579567024,299.23897031528674,33.11807258641045,17932.20723337517,25961.388519736272
1390.0,33.162729083224654,3.91119693731982,18462.3926028965,26081.481741625477,299.8686416385324,33.64179642361218,18045.57519101894,26128.243838654293
1400.0,33.17213586109125,3.924500130156994,18579.723124788547,26247.41215696552,300.4974514627694,34.16673860439585,18159.02669274067,26295.245591011673
