Temperature,Cp,Cp_uncertainty,H,H_uncertainty,S,S_uncertainty,G,G_uncertainty
100.0,29.700654830307183,0.5879576045338658,149.3628258595595,489.51150521144683,173.74901021069687,3.8543034418513384,131.98792483848985,489.3559954402605
110.0,29.601100560052476,0.5861186127836349,152.06964749266058,497.1285337767546,176.5474286440295,3.8704049809755556,132.64943034181735,496.96327402196727
120.0,29.51266795725806,0.5845924893721283,154.7755320950095,504.7456444958062,179.09526251484564,3.8886949206190464,133.284100593228,504.57077478799044
130.0,29.43496101309632,0.5833364996772032,157.48059513230066,512.362848737864,181.4335511676372,3.908419849683954,133.89423348050786,512.1784478987958
140.0,29.367590674285395,0.5823136268782372,160.18495761797814,519.9801881204997,183.59416599132697,3.9290598670988004,134.4817743791924,519.786284786842
150.0,29.31017514376585,0.5814923428918253,162.88875441119825,527.5977605098715,185.60234589789852,3.950251887582574,135.0484025265135,527.3943416689029
160.0,29.26234011564751,0.5808463414607279,165.59214525919754,535.2157546875238,187.47841285597332,3.971740388448514,135.59559920224183,535.0027723752493
170.0,29.2237188774459,0.5803542020982458,168.29532756838762,542.8344904763218,189.23896643341078,3.9933449403838686,136.12470327470777,542.6118670841217
180.0,29.193952248539784,0.5799989629086577,170.99854938755834,550.4544595362364,190.8977363843426,4.01493831566735,136.6369568383767,550.2220920434203
190.0,29.172688363398365,0.5797676011891645,173.70212097785893,558.076361697394,192.46620440578135,4.0364314363018545,137.13354214076048,557.8341250635806
200.0,29.159582337687514,0.5796504428321767,176.40642358937438,565.7011324719455,193.95406621213723,4.057762846034576,137.61561034694697,565.4488823673269
210.0,29.154295869573296,0.5796405368196018,179.1119145292145,573.3299588550357,195.36958073638252,4.078891235008602,138.08430257457422,573.0675338675535
220.0,29.156496828811477,0.5797330362927584,181.8191281404925,580.9642822129103,196.71983800236316,4.099790061711509,138.5407637799726,580.6915056427821
230.0,29.16585887717121,0.5799246237809466,184.5286727978265,588.6057885917256,198.01096738555424,4.120443639541296,138.986150299149,588.3224699217985
240.0,29.18206115039951,0.5802130084282419,187.24122439550368,596.2563879506487,199.24830150286095,4.140844261379915,139.42163203481704,595.9623240635431
250.0,29.204788018186466,0.5805965111045553,189.95751703690195,603.9181845568929,200.43650661285378,4.160990069694728,139.84839038368855,603.6131607555801
260.0,29.233728926808247,0.5810737419886393,192.67833173720234,611.5934411069834,201.57968741759635,4.180883468530251,140.26761300862734,611.2772319836132
270.0,29.268578320343774,0.5816433662620744,195.40448395163824,619.2845391392196,202.68147207047036,4.200529933566567,140.68048649261124,618.9569093272112
280.0,29.309035630694236,0.5823039475739846,198.13681066966785,626.9939380753807,203.74508171514896,4.219937117317008,141.0881877894261,626.6546429117469
290.0,29.354805323676313,0.5830538557889754,200.8761577009514,634.7241348681263,204.77338781714812,4.239114174910754,141.49187523397848,634.3729209864592
300.0,29.4055969875865,0.5838912246674575,203.62336764588818,642.4776258101493,205.76895977435805,4.2580712558642215,141.89267971358072,642.1142316794561
310.0,29.461125451201543,0.5848139458637053,206.37926890933278,650.2568716375631,206.73410472140128,4.276819121466926,142.29169644569842,649.881028058023
320.0,29.52111091962559,0.5858196873175605,209.14466599246387,658.0642666695271,207.6709010164261,4.295368857664356,142.68997766720756,657.6756972330542
330.0,29.585279118277796,0.5869059262416692,211.92033119107688,665.9021123891899,208.58122657776406,4.313731660799712,143.0885264204147,665.5005339102844
340.0,29.65336143731906,0.5880699890992934,214.70699774154366,673.7725955961808,209.46678299351603,4.331918679085567,143.48829152374816,673.3577185167754
350.0,29.725095070736753,0.5893090929982856,217.50535438839407,681.6777710484104,210.32911613953104,4.349940896770984,143.89016373955826,681.2492998191422
360.0,29.80022314602206,0.5906203846747338,220.31604129844814,689.619548356109,211.16963389599712,4.367809051037493,144.29497309588913,689.1771817955733
370.0,29.878494841828026,0.5920009746627664,223.13964721326863,697.5996827863338,211.98962143951636,4.385533573972149,144.7034872806476,697.1431144192919
380.0,29.9596654921748,0.5934577865231686,225.9767077117058,705.6197695730083,212.7902544984197,4.403124553723504,145.11641100230634,705.1486879481604
390.0,30.04349667668347,0.5950074788287539,228.82770444475221,713.6812412974014,213.57261088851794,4.4205917102880425,145.5343861982302,713.1953302851473
400.0,30.129756297000778,0.5966188519463311,231.69306520332734,721.7853678988997,214.33768059023973,4.437944382403725,145.95799296723146,721.2843069694203
410.0,30.218218640057216,0.598288929418511,234.5731646837861,729.9332588891087,215.08637458299813,4.455191522819779,146.3877511047569,729.4167233711004
420.0,30.308664429118,0.6000147806022006,237.46832582407876,738.1258673680045,215.81953261622144,4.472341699824387,146.82412212526577,737.5935286884381
430.0,30.400880863773615,0.6017935212474894,240.37882159411183,746.3639954743996,216.53793006694661,4.489403103386638,147.2675116653248,745.8155213797487
440.0,30.494661650104813,0.6036223103004174,243.30487713584304,754.6483009408335,217.24228400976546,4.506383554638091,147.71827217154623,754.0833557002887
450.0,30.58980702227185,0.6054983438678796,246.246672161114,762.9793044623644,217.93325860515216,4.523290517706601,148.17670578879552,762.3975490536498
460.0,30.686123756741587,0.6074188472335927,249.20434352757934,771.3573976277792,218.6114698959069,4.540131113139236,148.64306737546224,770.7584899062454
470.0,30.78342518029449,0.6093810657385312,252.1779879248905,779.7828511989712,219.27749008796425,4.55691213232627,149.1175675835473,779.1664460507258
480.0,30.881531172861724,0.6113822552481504,255.1676646142659,788.2558235589153,219.93185138059704,4.573640052475254,149.60037595157937,787.6215730387968
490.0,30.980268166138714,0.6134196728297431,258.17339817457224,796.7763691802024,220.5750494016785,4.590321051791273,150.0916239677498,796.1239226354509
500.0,31.079469138814655,0.6154905681620534,261.1951812169646,805.3444469942939,221.20754629581097,4.606961024603524,150.59140806905918,804.6734511748061
510.0,31.178973609151228,0.6175921760997837,264.2329770380002,813.9599285664843,221.82977350651345,4.623565596243969,151.0997925496784,813.2700277225557
520.0,31.2786276255433,0.6197217107207035,267.2867221879624,822.6226060031133,222.4421342880763,4.640140137535215,151.61681235816275,821.9134419715801
530.0,31.37828375560016,0.6218763610946,270.35632893698204,831.3321995360334,223.04500597795115,4.6566897787849175,152.14247576866794,830.6034118157285
540.0,31.477801074201015,0.624053288932603,273.4416876264979,840.088364745,223.63874205651473,4.673219423215249,152.67676691598,839.3395905624219
550.0,31.577045150901345,0.626249628203162,276.5426688977421,848.8906993917193,224.22367401760403,4.689733759780321,153.21964818805986,848.1215737578021
560.0,31.67588803699971,0.6284624867375735,279.6591257923588,857.7387498501151,224.8001130702768,4.706237275343263,153.77106247300384,856.94890560896
570.0,31.774208252515262,0.6306889497934633,282.7908957230592,866.632017126183,225.36835168971768,4.722734266199159,154.33093525992007,865.8210849965895
580.0,31.87189077327539,0.6329260854988866,285.93780231445373,875.569962467888,225.9286650330365,4.739228848941097,154.89917659529254,874.7375710784897
590.0,31.968827018269668,0.6351709520623426,289.09965711598073,884.5520125711549,226.48131223382123,4.75572497067504,155.47568289802632,883.6977884899325
600.0,32.06491483738895,0.6374206066045375,292.2762611902127,893.5775643923209,227.0265375876786,4.772226418595419,156.06033863760544,892.7011321512286
610.0,32.160058499638055,0.6396721154455836,295.46740658086026,902.6459895806902,227.5645716395842,4.788736828937995,156.65301788071383,901.7469716961017
620.0,32.254168681884764,0.6419225656658557,298.67287766554205,911.7566385471908,228.09563218262986,4.805259695329801,157.25358571231158,910.8346555368271
630.0,32.34716245818639,0.6441690777492027,301.89245239890516,920.908844186778,228.61992517668546,4.821798376558268,157.8618995375934,919.9635145837467
640.0,32.438963289718544,0.646408819113008,305.12590345200795,930.1019252732451,229.13764559455225,4.83835610378307,158.47781027149455,929.1328656377887
650.0,32.52950101531663,0.6486390183299166,308.37299925405046,939.3351895456618,229.64897820236354,4.8549359872150335,159.10116342251413,938.3420144751707
660.0,32.61871184262957,0.6508569798502759,311.63350494258566,948.6079365058068,230.1540982802652,4.871541022286913,159.73180007761061,947.5902586436237
670.0,32.70653833987706,0.653060099041797,314.9071832282952,957.9194599458067,230.65317228877558,4.888174095340663,160.3695577948156,956.876889989314
680.0,32.79292942819479,0.6552458773730232,318.1937951802931,967.2690502248125,231.14635848566158,4.904837988855748,161.0142714100433,966.2011969332638
690.0,32.87784037454733,0.6574119375793509,321.49310093773846,976.65599631297,231.63380749767452,4.921535386242291,161.66577376434304,975.5624665154971
700.0,32.96123278518487,0.6595560386640549,324.80486035331745,986.0795876202416,232.1156628510522,4.938268876222496,162.32389635758096,984.9599862244382
710.0,33.04307459961773,0.6616760906016218,328.1288335739038,995.5391156268466,232.59206146430273,4.9550409568227,162.98846993424894,994.3930456283038
720.0,33.12334008508082,0.6637701686262523,331.4647815634381,1005.0338753312365,233.0631341064441,4.9718540389979475,163.65932500679827,1003.8609378243794
730.0,33.20200983145977,0.6658365270043914,334.8124665727826,1014.5631665306249,233.52900582356503,4.988710449909716,164.33629232158012,1013.3629607211791
740.0,33.27907074665006,0.6678736122062511,338.1716525610282,1024.1262949482107,233.9897963362987,5.00561243587688,165.01920327216723,1022.898418167593
750.0,33.354516052320974,0.6698800754073423,341.54210557243846,1033.722573220308,234.4456204105585,5.022562165018888,165.70789026451956,1032.4666209422317
760.0,33.42834528005647,0.671854784266818,344.9235940729409,1043.3513217557334,234.896588203666,5.039561729609225,166.40218703815472,1042.0668876152838
770.0,33.50056426784647,0.6737968339448357,348.31588924980133,1053.0118694789276,235.3428055878063,5.056613148156537,167.10192894719043,1051.6985452943525
780.0,33.5711851569024,0.6757055573361134,351.71876527785344,1062.7035544674652,235.7843744525697,5.0737183672297155,167.80695320484918,1061.3609302649045
790.0,33.64022638877275,0.677580534511285,355.1319995554033,1072.4257244938005,236.2213929881833,5.090879263042563,168.5170990947385,1071.053388535165
800.0,33.70771270273518,0.6794216013715473,358.5553729126914,1082.1777374803544,236.6539559508938,5.108097642812762,169.2322081519763,1080.7752762945477
810.0,33.77367513344315,0.6812288575354635,361.988669795566,1091.9589618763218,237.0821549118336,5.12537524590923,169.95212431698084,1090.5259602939852
820.0,33.83815100880641,0.6830026734895895,365.4316784268094,1101.7687769639092,237.50607849059173,5.142713744801024,170.67669406452427,1100.304818155854
830.0,33.90118394808617,0.6847436970469535,368.8841909473575,1111.6065731010788,237.9258125746025,5.160114745820525,171.40576651043742,1110.1112386205655
840.0,33.96282386018637,0.6864528591692202,372.34600353946524,1121.471751907281,238.34144052537528,5.177579789752684,172.13919349815015,1119.944621736284
850.0,34.023126942125046,0.6881313792199049,375.81691653370115,1131.3637263981177,238.7530433725006,5.195110352261735,172.8768296670756,1129.8043789977116
860.0,34.082155677669284,0.6897807697269607,379.29673450148323,1141.2819210743537,239.16069999629363,5.21270784416609,173.61853250467075,1139.6899334393436
870.0,34.13997883611998,0.6914028407438622,382.7852663347274,1151.2257719702231,239.56448729986477,5.230373611571483,174.36416238384513,1149.6007196881324
880.0,34.19667147123285,0.6929997039086598,386.28232531403347,1161.1947266655452,239.96448037134303,5.248108935872178,175.1135825872516,1159.536183980069
890.0,34.25231492026316,0.6945737763105775,389.7877291667109,1171.1882442657543,240.36075263692334,5.265915033629245,175.866659319849,1169.495784144775
900.0,34.3069968031232,0.6961277842835675,393.3013001158242,1181.205795353568,240.7533760053518,5.2837930563346704,176.62326171100747,1179.4789895618258
910.0,34.36081102164176,0.6976647672556885,396.82286492133176,1191.2468619156919,241.14242100442053,5.301744090069591,177.38326180730903,1189.4852810921925
920.0,34.41385775891628,0.6991880817923739,400.35225491429,1201.3109372476224,241.52795690999463,5.3197691550644235,178.1465345570949,1199.5141509878626
930.0,34.466243478748694,0.7007014059804102,403.8893060250048,1211.3975258393368,241.910051868058,5.337869205168517,178.91295778771087,1209.5651027824222
940.0,34.518080925157136,0.7022087443077648,407.43385880592655,1221.506143244385,242.28877301022715,5.356045127236242,179.68241217631294,1219.6376511651024
950.0,34.569489121955804,0.7037144332021447,410.9857584500098,1231.63631593466,242.66418656314744,5.374297740436548,180.45478121501984,1229.7313218405734
960.0,34.62059337239692,0.7052231473982464,414.54485480518656,1241.7875811428921,243.0363579521574,5.392627795492236,181.22995117111535,1239.8456513765163
970.0,34.67152525886773,0.706739907309799,418.11100238553985,1251.9594866947273,243.40535189957873,5.411035973855304,182.00781104294848,1249.9801870408367
980.0,34.72242264263784,0.7082700875877567,421.68406037970294,1262.151590832043,243.77123251796178,5.429522886824153,182.78825251210034,1260.1344866301617
990.0,34.773429663651314,0.7098194270498122,425.2638926569605,1272.3634620290059,244.1340633985959,5.448089074608346,183.57116989235055,1270.3081182911317
1000.0,34.824696740358874,0.7113940401688443,428.8503677714735,1282.594678802207,244.4939076955697,5.466735005346311,184.3564600759038,1280.5006603358072
1010.0,34.852044733508116,0.7162551576219619,432.43914158658873,1292.8373224926818,244.8434489599135,5.477074946936289,185.14725813707602,1290.7202586925046
1020.0,34.887365678473046,0.7171703311574557,436.03819940531093,1303.105880745833,245.19718578629113,5.495752946255603,185.93706990329392,1300.9495556544528
1030.0,34.92252647984564,0.7180940270598077,439.64336002580296,1313.3925936653268,245.5479572081102,5.514516535128322,186.72896410144938,1311.196558159343
1040.0,34.957528333911604,0.719026067267815,443.2545008013197,1323.697078547867,245.89581898768523,5.533366121588764,187.52284905412708,1321.4608830949069
1050.0,34.992372426860705,0.7199662819551611,446.87150200019903,1334.01896186974,246.24082529784897,5.552302080740066,188.31863543745774,1331.7421565377815
1060.0,35.027059934784134,0.7209145089697918,450.49424674266527,1344.3578790873412,246.58302878212368,5.571324755841649,189.1162362336142,1342.0400135535508
1070.0,35.06159202368942,0.7218705932975774,454.12262093769533,1354.7134744379064,246.92248061206763,5.59043445936765,189.915566682783,1352.3540979970137
1080.0,35.095969849531,0.7228343865501804,457.75651322011595,1365.0854007409625,247.25923054195368,5.609631474037038,190.71654423480587,1362.684062313203
1090.0,35.130194558254445,0.7238057464769047,461.3958148880741,1375.4733192009685,247.59332696092955,5.628916053815797,191.51908850066096,1373.0295673396176
1100.0,35.16426728585248,0.7247845365001717,465.0404198410112,1385.8768992115372,247.9248169427953,5.648288424891745,192.3231212039363,1383.3902821100585
1110.0,35.198189158431475,0.7257706252742021,468.69022451825083,1396.2958181616016,248.25374629353024,5.667748786622571,193.1285661324322,1393.7658836604355
1120.0,35.23196129228678,0.7267638862663913,472.3451278382971,1406.7297612438222,248.58015959668796,5.687297312457675,193.9353490900066,1404.1560568368272
1130.0,35.26558479398575,0.7277641973607984,476.0050311389251,1417.1784212654939,248.90410025677534,5.706934150834203,194.74339784876892,1414.5604941060706
1140.0,35.299060760457245,0.7287714404831394,479.6698381181355,1427.6414984621877,249.22561054072074,5.7266594260481085,195.55264210171396,1424.9788953690936
1150.0,35.33239027908667,0.7297855012466322,483.3394547760324,1438.1187003143018,249.5447316175321,5.746473239100636,196.36301341587054,1435.4109677771794
1160.0,35.365574427815545,0.7308062686180054,487.01378935767497,1448.6097413666917,249.86150359623974,5.7663756685207535,197.1744451860369,1445.8564255513247
1170.0,35.398614275244796,0.7318493948767131,490.69275229694415,1459.1143430515033,250.17596556221014,5.7863667711643085,197.98687258915817,1456.3149898048166
1180.0,35.43151088074116,0.7329547789777731,494.37625616145795,1469.6322335143207,250.4881556119168,5.806446582990236,198.80023253939615,1466.7863883691355
1190.0,35.46426529454571,0.7340653743949712,498.0642155985627,1480.1631474437077,250.7981108862435,5.826615119814557,199.61446364393294,1477.2703556232661
1200.0,35.496878557884365,0.7351810915333804,501.75654728241966,1490.7068259042094,251.10586760239642,5.846872378042599,200.4295061595439,1487.7666323264832
1210.0,35.52935170307949,0.7363018432747502,505.45316986220166,1501.2630161728641,251.4114610844912,5.867218335379991,201.24530194996726,1498.2749654546574
1220.0,35.56168575366232,0.7374275446937655,509.154003911412,1511.8314715792512,251.7149257928841,5.887652951523105,202.06179444409332,1508.7951080401053
1230.0,35.59388172448568,0.7385581127935387,512.858971878328,1522.4119513490973,252.0162953523049,5.908176168829228,202.8789285949929,1519.3268190150136
1240.0,35.62594062183676,0.7396934662594058,516.5679980375725,1533.0042204514393,252.31560257885363,5.928787912967215,203.69665083979405,1529.8698630584256
1250.0,35.65786344354954,0.7408335252301358,520.2810084428121,1543.60804944935,252.6128795059122,5.949488093549031,204.51490906042184,1540.424010446801
1260.0,35.68965117911652,0.7419782110856897,523.9979308805762,1554.2232143541996,252.90815740902588,5.970276604742532,205.3336525452035,1550.9890369081193
1270.0,35.72130480979975,0.7431274462507068,527.7186948251897,1564.8494964834372,253.2014668298013,5.991762312165236,206.152831951342,1561.5647234795138
1280.0,35.75282530874064,0.7442811540129107,531.4432313948105,1575.4866823218565,253.49283759886868,6.014602510767736,206.97239926825864,1572.1508563683935
1290.0,35.78421364106855,0.7454392583556626,535.1714733085591,1586.1345633863168,253.7822988579511,6.037559604441522,207.792307781802,1582.7472268170309
1300.0,35.81547076400804,0.7466016838039459,538.9033548447271,1596.7929360938645,254.06987908108252,6.060633234881262,208.6125120393198,1593.3536309705573
1310.0,35.84659762698443,0.7477683552830338,542.6388118000502,1607.46160163322,254.35560609501385,6.083823028477664,209.43296781558212,1603.9698697483248
1320.0,35.877595171727776,0.7489391979892043,546.3777814500295,1618.1403658395748,254.63950709884344,6.107128596998864,210.25363207955616,1614.5957487185917
1330.0,35.90846433237511,0.7501141372718312,550.1202025102821,1628.8290390726388,254.92160868290816,6.130549538251724,211.0744629620141,1625.2310779764598
1340.0,35.939206035570706,0.7512930985262304,553.8660150989069,1639.5274360978917,255.20193684696716,6.154085436723586,211.89541972397097,1635.8756720250224
1350.0,35.96982120056456,0.7524760070966723,557.615160699842,1650.2353759709667,255.48051701771075,6.17773586420482,212.71646272593273,1646.5293496596476
1360.0,36.00031073930877,0.7536627881890068,561.3675821271984,1660.952681925119,255.75737406562354,6.201500380392707,213.53755339795032,1657.1919338553553
1370.0,36.03067555655213,0.7548533667923407,565.1232234905453,1671.6791812617003,256.03253232123103,6.225378533477078,214.3586542104589,1667.8632516572034
1380.0,36.060916549932394,0.7560476676092642,568.8820301611343,1682.414705243589,256.3060155907556,6.249369860708117,215.17972864589154,1678.543134073631
