Temperature,Cp,Cp_uncertainty,H,H_uncertainty,S,S_uncertainty,G,G_uncertainty
100.0,30.22087163227693,2.0759380540949453,4756.042943535308,8285.249391217127,164.60538014690366,17.29797508976421,4739.582405520617,8284.82518187205
110.0,30.154086968994022,2.0331786843295276,4796.364562523875,8355.525067441367,167.06806332302983,16.895090179927966,4777.9870755583415,8355.040778060276
120.0,30.090255961939693,1.9934097215148363,4836.685528504578,8425.80111696407,169.3316568972689,16.559009607747015,4816.365729676906,8425.256165482799
130.0,30.029294734875116,1.9564930401164686,4877.00587059345,8496.077523143711,171.42830436910947,16.277751810634946,4854.720191025465,8495.471545725495
140.0,29.97112081796096,1.9222898160873512,4917.325617075029,8566.354269815705,173.38298521434905,16.04206795008101,4893.051999145019,8565.68709055893
150.0,29.91565314797585,1.8906611350958913,4957.644795417725,8636.631341286546,175.2154958721506,15.84468873614223,4931.362471036902,8635.90294831977
160.0,29.862812069176833,1.8614686320313751,4997.963432293959,8706.908722336293,176.9417900894771,15.67981361412397,4969.652745879644,8706.119248592877
170.0,29.812519335974237,1.8345751445883487,5038.281553616601,8777.186398249654,178.5749122077249,15.54275410797833,5007.923818541287,8776.336105750333
180.0,29.76469811976061,1.8098453630412528,5078.599184620376,8847.464354925849,180.1256632814592,15.429678508339473,5046.176565229713,8846.553621743651
190.0,29.719273023692306,1.7871464584776935,5118.916350047541,8917.742579171183,181.60308685787862,15.33742511981097,5084.411763544544,8916.771888483026
200.0,29.676170110516328,1.7663486729414963,5159.233074541992,8988.021059356886,183.01483000865016,15.263363063545073,5122.630108540263,8986.99099014321
210.0,29.635316949067985,1.7473258572317603,5199.549383410385,9058.299786720003,184.3674161865462,15.205286801193962,5160.832226011212,9057.211005783362
220.0,29.59664268436346,1.7299559453862359,5239.8653039627525,9128.578757679763,185.66645455141798,15.161335042323385,5199.018683961441,9127.432012731297
230.0,29.560078134147734,1.7141213587787676,5280.180867685133,9198.857977611839,186.91680273090378,15.129927592525464,5237.190003057026,9197.654091230941
240.0,29.525555911614035,1.6997093367592129,5320.496113510266,9269.137466546666,188.1226949205434,15.109715608634172,5275.346666729336,9267.87733086077
250.0,29.49301057037556,1.686612194337384,5360.811092431517,9339.417267221503,189.28784382209238,15.099542013704772,5313.489131475993,9338.101839183912
260.0,29.462378764341622,1.6747275101784558,5401.125873648413,9409.697455816218,190.41552258280285,15.098409708003505,5351.617837776886,9408.327752983421
270.0,29.43359941253925,1.6639582499712646,5441.440552344778,9479.97815554982,191.50863126840858,15.105455830069667,5389.733221902308,9478.55525227798
280.0,29.406613857515715,1.6542128311011073,5481.755259092647,9550.259553125794,192.56975124719756,15.119930760953158,5427.835728743431,9548.784577120285
290.0,29.381366005883386,1.6454051347053502,5522.070170760186,9620.541917812805,193.60119003183513,15.141180881412634,5465.925825650955,9619.016046976136
300.0,29.357802440711993,1.6374544708814573,5562.385522692094,9690.82562275513,194.60501852040557,15.168634323444067,5504.0040171359715,9689.250082287912
310.0,29.335872497559446,1.630285502313262,5602.701621837929,9761.11116794411,195.58310213189088,15.201789129025242,5542.070860177043,9759.48722766137
320.0,29.315528298603517,1.6238281310835334,5643.018860434653,9831.399204160696,196.53712699855853,15.240203357494213,5580.126979795115,9829.728175992332
330.0,29.29672474223148,1.618017353069907,5683.337729808784,9901.690557127631,197.46862212705048,15.283486780348808,5618.173084506858,9899.973792777277
340.0,29.27941944824763,1.612793084119685,5723.658833851315,9971.9862510882,198.37897824927524,15.33129387676108,5656.209981246561,9970.225139829388
350.0,29.26357266133283,1.608099962149493,5763.982901732837,10042.287531053636,199.26946393784533,15.383317900641378,5694.238589354591,10040.483497646192
360.0,29.249147117383167,1.6038871293643728,5804.310799463145,10112.595883025786,200.1412394475103,15.439285834902769,5732.259953262041,10110.750385738667
370.0,29.23610787879627,1.600107998870244,5844.643539953422,10182.913051595895,200.99536865563414,15.498954083756262,5770.275253550837,10181.02758032563
380.0,29.224422145658185,1.5967200100002146,5884.982291304808,10253.241054435568,201.83282940527175,15.562104781677505,5808.285816130806,10251.31712891178
390.0,29.21405905015461,1.5936843766409432,5925.328383118789,10323.582193321487,202.6545224993639,15.628542619815294,5846.293119344036,10321.62136139298
400.0,29.204989441462658,1.5909658327019067,5965.683310698193,10393.939061463927,203.46127955069443,15.698092108326705,5884.298798877916,10391.942897460423
410.0,29.197185667962195,1.5885323786100314,6006.048737078262,10464.31454703298,204.25386985704205,15.77059520738041,5922.304650436875,10462.284650198872
420.0,29.19062136293345,1.5863550323436264,6046.4264928924495,10534.71183289074,205.033006442525,15.845909271102277,5960.312630186589,10532.649825888166
430.0,29.185271239067617,1.5844075880637618,6086.818574135192,10605.134392638405,205.79935138303955,15.923905258109246,5998.324853040485,10603.041920117796
440.0,29.18111089618791,1.5826663848862583,6127.227137932595,10675.585983172756,206.55352051482586,16.004466169925816,6036.343588906071,10673.464710409453
450.0,29.178116645623987,1.5811100877934052,6167.654496471097,10746.070634014948,207.29608760969822,16.08748568484614,6074.371257046733,10743.922245610915
460.0,29.176265353753905,1.579719482140494,6208.10310926401,10816.592633726857,208.02758808768698,16.17286695995944,6112.410418743673,10814.418832376688
470.0,29.175534306361172,1.5784772826932112,6248.57557395651,10887.156513766402,208.7485223272292,16.260521578313234,6150.463768462713,10884.959019086979
480.0,29.17590109467516,1.5773679576577238,6289.074615882203,10957.767030155304,209.4593586242063,16.3503686217149,6188.5341237425855,10955.547577578469
490.0,29.17734352328561,1.5763775677497782,6329.603076589544,11028.429143341828,210.16053584373287,16.44233385260277,6226.624414026114,11026.189483069304
500.0,29.179839539551878,1.5754936200005412,6370.163901555415,11099.14799663913,210.8524658023876,16.53634899086196,6264.73766865422,11096.889892659034
510.0,29.18336718366561,1.5747049357183698,6410.760127296917,11169.92889360922,211.53553541333753,16.63235107350555,6302.877004236114,11167.654122773125
520.0,29.187904558165364,1.5740015318160572,6451.3948680821895,11240.777274744241,212.21010862237745,16.73028188685718,6341.045611598554,11238.48762590384
530.0,29.193429815436588,1.573374514568176,6492.071302427592,11311.698693773458,212.87652815914248,16.830087462316516,6379.246742503246,11309.395966975564
540.0,29.1999211615492,1.572815984776293,6532.792659553012,11382.698793896854,213.53511712454616,16.931717628009597,6417.483696305757,11380.38479963544
550.0,29.20735687467702,1.5723189532831943,6573.562205949958,11453.783284216352,214.18618043276336,17.03512560965919,6455.759806711938,11451.459842740092
560.0,29.215715336297706,1.5718772657825069,6614.383232199239,11524.957916604371,214.83000612373212,17.140267674889483,6494.078428769949,11522.626857278106
570.0,29.22497507337691,1.5714855359085258,6655.259040157058,11596.228463217976,215.4668665601376,17.24710281592842,6532.44292621778,11593.891623936364
580.0,29.23511480978637,1.5711390856548222,6696.19293061054,11667.600694835537,216.09701952111018,17.355592466310828,6570.856659288297,11665.259921487059
590.0,29.246113525283484,1.5708338922520284,6737.188191486622,11739.080360163072,216.72070920337706,17.465700247735185,6609.322973056629,11736.73750614251
600.0,29.257950520480467,1.5705665407285727,6778.248086681906,11810.673166228664,217.3381671393142,17.577391743699813,6647.845186398316,11808.330091996067
610.0,29.270605486348533,1.5703341814778944,6819.375845566097,11882.384759957138,217.94961304022917,17.690634296950545,6686.426581611556,11880.043332641324
620.0,29.28405857692962,1.5701344922574307,6860.574653197533,11954.220710992546,218.55525557223285,17.80539682812644,6725.070394742749,11951.882804037074
630.0,29.298290484060352,1.5699656441449548,6901.847641276835,12026.186495814005,219.15529307121386,17.921649673295303,6763.779806641971,12023.853988663652
640.0,29.313282513046353,1.5698262710743476,6943.197879853402,12098.287483170716,219.74991420269504,18.03936443833682,6802.557934763678,12095.962260996406
650.0,29.329016658355982,1.569715442663668,6984.628369789435,12170.52892084436,220.33929857170546,18.158513868365187,6841.407825717828,12168.212874304607
660.0,29.34547567852909,1.569632640132532,7026.142035977635,12242.91592373213,220.9236172872433,18.279071730584604,6880.332448568053,12240.610948768986
670.0,29.36264316961614,1.5695777351825932,7067.741721301117,12315.453463230326,221.50303348540876,18.401012709151022,6919.334688865894,12313.16146089802
680.0,29.380503636575156,1.569550971784323,7109.430181317969,12388.146357887663,222.07770281485574,18.524312310769172,6958.417343403868,12385.869234212012
690.0,29.399042562157643,1.5695529508753812,7151.210079647572,12460.999265288316,222.64777388783006,18.648946779893134,6997.583115664968,12458.738931155174
700.0,29.418246472908816,1.5695846180310822,7193.083984031604,12534.016675117122,223.2133886997257,18.774893022520164,7036.834611941796,12531.775046188157
710.0,29.438103001992886,1.569647254216241,7235.054363039407,12607.202903353886,223.77468301979735,18.902128537675566,7076.174338095349,12604.981900008037
720.0,29.458600948630313,1.5697424697707756,7277.123583384801,12680.562087539118,224.3317867554016,19.03063135578247,7115.604696920911,12678.363634838192
730.0,29.47973033400105,1.5698722018193052,7319.293907819689,12754.098183050432,224.8848242919126,19.160379983195167,7155.1279860865925,12751.924210727333
740.0,29.501482453527004,1.5700387153283581,7361.5674935686675,12827.814960326927,225.43391481024722,19.291353352250166,7194.7463966090845,12825.667402795181
750.0,29.52384992549747,1.5702446080642156,7403.9463912681495,12901.716002977613,225.9791725837557,19.42353077625752,7234.462011830333,12899.596799360812
760.0,29.54682673604522,1.5715153389980183,7446.4325443735115,12975.804706709912,226.52070725606868,19.556891908913318,7274.276806858899,12973.715800889908
770.0,29.570408280517412,1.573836055038887,7489.027788997889,13050.084279014553,227.05862410134677,19.69141670767029,7314.19264843985,13048.027619697186
780.0,29.594591401316205,1.5762364405681952,7531.733854146983,13124.55773954433,227.59302426825008,19.827085400648865,7354.211295217748,13122.535280341684
790.0,29.619374422308844,1.578718394431597,7574.552362315022,13199.227921125745,228.12400500882654,19.963878456716856,7394.334398358049,13197.24162065388
800.0,29.644757179927083,1.5812842338331508,7617.484830408146,13274.097471344337,228.6516598934159,20.10177655840201,7434.563502493413,13272.149293335608
810.0,29.67074105109121,1.5839367315421335,7660.532670962815,13349.168854647001,229.17607901257105,20.240760577337717,7474.900046962633,13347.260768076128
820.0,29.697328978105787,1.5866791585069608,7703.697193628179,13424.444354906806,229.69734916691408,20.380811551972926,7515.34536731131,13422.578334129867
830.0,29.724525490682183,1.5895153322403952,7746.979606882905,13499.92607839866,230.21555404577003,20.521910667304407,7555.900697024916,13498.10410330434
840.0,29.75233672524857,1.5924496713428784,7790.381019958529,13575.615957136863,230.73077439535012,20.664039236415494,7596.567169466434,13573.84001330928
850.0,29.78077044171056,1.5954872565298694,7833.902444943035,13651.515752528443,231.243088177196,20.807178683627438,7637.345819992419,13649.787831420974
860.0,29.809836037826578,1.5986338985240403,7877.544799039973,13727.627059299048,231.75257071753958,20.951310529089522,7678.23758822289,13725.949158418596
870.0,29.83954456136054,1.601896213163356,7921.308906960081,13803.951309651015,232.25929484818207,21.0964163746525,7719.243320442161,13802.32543275228
880.0,29.86990872017214,1.605281704060604,7965.195503423976,13880.48977761608,232.76333103944899,21.24247789088623,7760.363772109262,13878.917934905345
890.0,29.900942890400913,1.6087988531277686,8009.205235756129,13957.243583567995,233.26474752573665,21.38947680511701,7801.599610458223,13955.727791916064
900.0,29.932663122895548,1.612457219248674,8053.338666551734,14034.21369886293,233.7636104241253,21.537394890373225,7842.951417170023,14032.755982026894
910.0,29.965087148034307,1.6162675453440194,8097.59627639974,14111.400950578243,234.25998384650148,21.68621395513984,7884.419691099423,14110.003339431716
920.0,29.998234379076322,1.62024187402285,8141.978466646611,14188.806026322629,234.75393000559683,21.846131085142346,7926.004851041461,14187.470559094265
930.0,30.03212591417686,1.6243936719518575,8186.485562186828,14266.429479093134,235.24550931532434,22.10772892610206,7967.707238523576,14265.158201613116
940.0,30.066784537192916,1.6287379629968175,8231.117814267362,14344.271732156656,235.73478048576322,22.371046818712237,8009.527120610744,14343.066698110999
950.0,30.10223471739858,1.6332914700968773,8275.875403294694,14422.333083935888,236.22180061312073,22.636041952791306,8051.4646927122285,14421.196355128375
960.0,30.13850260822237,1.6380727657203467,8320.758441633976,14500.613712881499,236.7066252649754,22.90267245173432,8093.5200813796,14499.547359503104
970.0,30.17561604511185,1.6431024306178093,8365.766976391138,14579.113682314442,237.18930856108562,23.170897343726153,8135.693347086886,14578.119783220129
980.0,30.213604542624083,1.6484032204330068,8410.900992169678,14657.832945223889,237.66990325002809,23.440676533086513,8177.98448698465,14656.91358821668
990.0,30.25249929083333,1.6540002395519342,8456.16041379487,14736.771349008079,238.14846078191246,23.711970771820095,8220.393437620778,14735.928631130315
1000.0,30.292333151141165,1.6599211213647824,8501.545108999011,14815.928640146887,238.62503137740316,23.98474163143777,8262.920077621608,14815.164667978628
1010.0,30.332060161341307,1.6659146035031203,8547.054886635997,14895.304471318595,239.09965968273139,24.25895491700326,8305.56423035644,14894.621358744569
1020.0,30.37160383016262,1.6719598647830836,8592.689495815268,14974.89840787811,239.57238164334274,24.534583080935274,8348.32566653906,14974.298271882653
1030.0,30.41096016043086,1.6780541154658786,8638.44863649198,15054.709927682214,240.0432326328273,24.81159885928026,8391.204106880168,15054.194888671711
1040.0,30.450125374703013,1.6841947715913386,8684.331961354146,15134.738425742242,240.51224697758062,25.089975663853824,8434.199224497463,15134.31060757286
1050.0,30.489095930644673,1.6903794447486133,8730.339078228526,15214.983218442063,240.97945798349994,25.369687578736205,8477.310647345848,15214.644748436844
1060.0,30.52786851470317,1.6966059273513203,8776.469552425182,15295.44354764643,241.44489797687675,25.65070934404121,8520.537960569693,15295.196556610927
1070.0,30.56644003561557,1.7028721788269765,8822.722909017953,15376.118584696971,241.90859834330865,25.933016339750353,8563.880708790613,15375.965206933372
1080.0,30.604807617793643,1.7091763126818573,8869.098635059314,15457.007434293258,242.37058956474036,26.216584569652465,8607.338398329395,15456.94980761305
1090.0,30.642968594623497,1.7155165844016094,8915.596181728662,15538.1091382572,242.83090125473655,26.50139064542629,8650.910499360998,15538.149403992322
1100.0,30.680920501714127,1.7218913801476585,8962.214966413287,15619.422679179503,243.28956219208231,26.78741177089614,8694.596448001997,15619.562982191983
1110.0,30.718661070125204,1.7282992062095328,9008.954374721738,15700.946983947626,243.74660035280198,27.074625726489604,8738.395648330128,15701.18947263774
1120.0,30.756188219601427,1.7347386791737198,9055.81376242943,15782.680927155077,244.20204294068134,27.36301085392006,8782.30747433587,15783.027753468006
1130.0,30.793500051837526,1.7412085167703992,9102.79245735679,15864.623334392401,244.65591641637346,27.652546041114146,8826.33127180629,15865.076653823453
1140.0,30.830594843795375,1.7477075293603876,9149.889761180219,15946.77298542056,245.10824652516268,27.943210707402162,8870.466360141532,15947.334957018938
1150.0,30.867471041091882,1.7542346120257206,9197.104951176645,16029.128617227856,245.55905832345854,28.2349847889847,8914.712034104668,16029.801403599005
1160.0,30.904127251474144,1.7607887372286035,9244.437281902328,16111.688926971674,246.0083762040855,28.52784872468738,8959.067565505587,16112.474694278271
1170.0,30.940562238395962,1.7673689480047736,9291.885986806916,16194.452574806808,246.45622392043208,28.82178344201368,9003.532204820009,16195.353492768385
1180.0,30.976774914708166,1.773974351658773,9339.450279783856,16277.418186602192,246.9026246095174,29.116770343502292,9048.105182744624,16278.43642849347
1190.0,31.012764336472845,1.7806041139300206,9387.129356658275,16360.58435654813,247.34760081403275,29.412791293395042,9092.785711689576,16361.722099196077
1200.0,31.0485296969106,1.7872574536001093,9434.922396613707,16443.949649656326,247.79117450340854,29.709828604618803,9137.572987209616,16445.209073435963
1210.0,31.08407032048777,1.7939336375131252,9482.828563558956,16527.512604155032,248.23336709395818,30.00786502608403,9182.466189375265,16528.89589298409
1220.0,31.119385657149728,1.8006319759822929,9530.847007436563,16611.271733781887,248.67419946814465,30.306883730300477,9227.464484085427,16612.78107511429
1230.0,31.15447527670488,1.8073518185576785,9578.976865474371,16695.22552997701,249.11369199301413,30.60686830131041,9272.567024322962,16696.86311479526
1240.0,31.189338863362913,1.8140925501309677,9627.217263381683,16779.372463979034,249.55186453783867,30.90780272293753,9317.772951354764,16781.140486785556
1250.0,31.2239762104299,1.8208535873548062,9675.567316491582,16863.71098882682,249.98873649100665,31.209671367350328,9363.081395877827,16865.611647634272
1260.0,31.25838721516194,1.8276343753553712,9724.02613085102,16948.239541269588,250.42432677619905,31.51245898393599,9408.49147911301,16950.275037590196
1270.0,31.292571873778325,1.8344343847181537,9772.592804260199,17032.956543588283,250.85865386788618,31.816150688482395,9454.002313847983,17035.12908242226
1280.0,31.32653027663427,1.841253108728084,9821.266427262923,17117.860405330917,251.29173580617805,32.12073195266317,9499.613005431016,17120.17219515403
1290.0,31.360262603553032,1.8480900608463053,9870.046084089447,17202.949524964795,251.72359021105987,32.42618859382172,9545.32265271718,17205.402777715
1300.0,31.393769119316147,1.8549447724069204,9918.930853553455,17288.222291448274,252.15423429604283,32.732506765048825,9591.130348968602,17290.81922251166
1310.0,31.427050169310714,1.8618167905181546,9967.919809904713,17373.67708572488,252.58368488125757,33.03967294554899,9637.035182710264,17376.419913920778
1320.0,31.46010617533144,1.868705676153259,10017.01202363898,17459.312282142564,253.01195840601724,33.34767393128911,9683.036238543038,17462.203229707975
1330.0,31.49293763153566,1.8756110024174917,10066.206562266712,17545.126249800687,253.43907094087592,33.65649682592392,9729.132597915348,17548.167542374027
1340.0,31.5255451005484,1.8825323529782916,10115.502491042043,17631.117353827467,253.8650381992046,33.96612903199233,9775.323339855107,17634.31122043166
1350.0,31.557929209714995,1.8894693206466984,10164.898873653594,17717.28395659049,254.28987554830954,34.27655824237809,9821.607541663376,17720.632629615484
1360.0,31.590090647498048,1.8964215060987317,10214.394772878499,17803.624418842788,254.71359802011247,34.5877724320281,9867.984279571147,17807.130134027506
1370.0,31.622030160015562,1.9033885167262452,10263.989251201128,17890.137100807075,255.13622032141419,34.89975984992303,9914.45262936079,17893.80209722081
1380.0,31.65374854771697,1.910369965607476,10313.681371397885,17976.820363200477,255.5577568437596,35.21250901129252,9961.011666953496,17980.646883223835
