Temperature,Cp,Cp_uncertainty,H,H_uncertainty,S,S_uncertainty,G,G_uncertainty
100.0,22.76079103985216,1.7708726223012747,325.3231194283516,136.73784872426046,142.24676516628952,6.744660379352988,311.09844291172266,137.31510570558373
110.0,22.68250161126079,1.719524514473955,323.8610669444831,129.89621697949008,144.37459489427167,6.973216528690754,307.97986150611325,130.54898806070045
120.0,22.607197714285974,1.6687532340368993,322.6564899665515,124.27598665063825,146.3115807907405,7.177959225365326,305.09910027166256,125.0004374382244
130.0,22.53480242826839,1.6185573052878217,321.7094174951311,119.89055442830623,148.08863777120524,7.362070083989205,302.4578945848744,120.68126419243839
140.0,22.465239924220054,1.5689365251447895,321.01987790112855,116.73327955066542,149.7297841142505,7.528135854325107,300.05770812513356,117.58358474038577
150.0,22.398435448548497,1.5198921508196177,320.5878988919227,114.77436202327053,151.2540494203461,7.678283977560156,297.8997914788708,115.67693707288744
160.0,22.334315313664057,1.471427098883889,320.4135074941376,113.96077639850569,152.6767653639886,7.814283363691366,295.9852250358995,114.9083766424014
170.0,22.27280689233386,1.4235461662701308,320.49673004620024,114.21966611007856,154.01046432308783,7.937619824489463,294.3149511112753,115.20589331619007
180.0,22.21383861416699,1.376256281610613,320.83759219687664,115.4645791201397,155.26552067166872,8.049553098714812,292.88979847597625,116.48451810291449
190.0,22.157339963358638,1.3295667948473398,321.4361189075853,117.60313374154256,156.450618388586,8.151160439710052,291.71050141375395,118.65375433480185
200.0,22.1032414772031,1.2834898134554136,322.29233445716415,120.54450467319853,157.57309853527596,8.243370307023438,290.77771475010894,121.62479878615775
210.0,22.051474745090015,1.2380405945620707,323.4062624482748,124.20549729151948,158.6392218302613,8.32698869459504,290.0920258639199,125.31638738583567
220.0,22.00197240781243,1.1932380035524905,324.77792581492224,128.51462675715487,159.65437005634192,8.402719920332457,289.653964402527,129.65871715163962
230.0,21.954668157080675,1.1491050513346994,326.4073468307505,133.4142068798378,160.62320263868276,8.471183204573725,289.46401022385345,134.5954527166637
240.0,21.90949673517495,1.105669524199957,328.2945471178883,138.86081030185375,161.54977985724912,8.532926013150963,289.52259995214854,140.08416357037328
250.0,21.86639393469316,1.0629647220328498,330.4395476561908,144.82458317819984,162.43766087670764,8.588434889751078,289.8301324370139,146.0956543789028
260.0,21.82529659836529,1.0210303222805694,332.8423687927697,151.2878650810145,163.28998252731793,8.6381443214055,290.3869733356671,152.61262112429557
270.0,21.786142618914976,0.9799133882152826,335.503030251739,158.24346531426372,164.10952320085343,8.682444049302594,291.1934589875086,159.62797187606228
280.0,21.748870938955076,0.9396695400049747,338.42155114412026,165.6928382936518,164.89875511330985,8.721685140338979,292.2498997123935,167.1430476839493
290.0,21.713421550907935,0.9003643049620997,341.5979499778703,173.64431031856557,165.65988738650108,8.756185062975039,293.55658263578493,175.16589241194606
300.0,21.679735496944005,0.8620746575293938,345.03224466800225,182.11144475702898,166.39490181810322,8.786231957104647,295.11377412257133,183.70965715630237
310.0,21.647754868934037,0.8248907477750522,348.72445254677933,191.11158946740375,167.10558278014574,8.812088246914195,296.9217218849342,192.79118272175694
320.0,21.617422808411625,0.788917796064083,352.6745903739643,200.66462334546634,167.79354236560073,8.833993714625269,298.9806568169721,202.42977707858407
330.0,21.588683506543497,0.7542780965853395,356.88267434711463,210.79190269217563,168.46024166131218,8.852168129101967,301.29079459888163,212.64618860716124
340.0,21.561482204105896,0.7211130178136556,361.34872011191186,221.5153985316495,169.1070088418069,8.866813504762842,303.85233710569753,223.46176634987975
350.0,21.535765191465554,0.6895848075664675,366.07274277252003,232.8570103987438,169.7350546374688,8.878116051749613,306.66547364940595,234.897792864705
360.0,21.51147980856441,0.6598778993919426,371.0547569019667,244.8380388957066,170.34548562131354,8.886247866906354,309.7303820782938,246.97497208124284
370.0,21.48857444490703,0.6321992767115445,376.2947765525424,257.4787976419843,170.93931567332444,8.891368406093758,313.04722975341235,259.7130529509628
380.0,21.466998539550477,0.6067772958034724,381.79281526621526,270.79834467091325,171.51747591424348,8.89362577116297,316.61617441880276,273.1305691998598
390.0,21.44670258109585,0.5838582364935293,387.5488860850578,284.8143136161259,172.08082334758802,8.893157839138986,320.4373649794985,287.24467586669175
400.0,21.427638107681364,0.5636998123272022,393.56300156168413,299.54282600455883,172.63014840631573,8.89009325650467,324.51094219915774,302.0710643511288
410.0,21.409757706976524,0.5465610358893727,399.8351737696955,314.9984674715598,173.16618156657734,8.884552317695611,328.83703932739877,317.6239392333436
420.0,21.393015016177344,0.5326883127148867,406.365414314133,331.19431257425464,173.68959916357417,8.876647743833974,333.41578266543183,333.91604199479906
430.0,21.377364722002255,0.5222984801169384,413.1537343419363,348.1419849421499,174.2010285222815,8.866485375201702,338.2472920773552,350.95870881255917
440.0,21.362762560688715,0.5155606042819824,420.20014455240675,365.85174162343793,174.7010524976344,8.854164788872751,343.3316814534476,368.76195167746926
450.0,21.349165317990302,0.512579357984997,427.5046552076755,384.3325725410797,175.19021350388243,8.839779851201788,348.6690591309284,387.33455408729
460.0,21.336530829174276,0.5133832170252213,435.0672761431746,403.5923078749732,175.66901710054472,8.823419213435795,354.259528276924,406.68417440727285
470.0,21.32481797901946,0.5179201265033592,442.888016778111,423.63772787774394,176.1379351922382,8.805166757520874,360.1031872377591,426.8174516211728
480.0,21.313986701814475,0.5260617106992421,450.96688612594426,444.4746710830593,176.59740889120386,8.78510199817619,366.2001298581665,447.74010959084353
490.0,21.303997981356176,0.5376150814230343,459.30389280486486,466.1081380713201,177.04785108430286,8.76330044646523,372.5504457735565,469.4570570994179
500.0,21.29481385094836,0.5523396536383307,467.8990450482752,488.54238892945386,177.48964874034272,8.739833939384487,379.1542206781038,491.9724818842021
510.0,21.286397393400573,0.5736741053464488,476.75235071527277,511.78103330157063,177.92316498861817,8.714770939387849,386.0115365710775,515.289937593139
520.0,21.278712741027167,0.5985934948855945,485.86381730113413,535.8271125033742,178.34874099535054,8.688176807253395,393.12247198355186,539.4124231504038
530.0,21.271725075646405,0.6248217163841272,495.2334519477996,560.6831735952596,178.7666976611472,8.660114051263147,400.48710218739154,564.3424544211211
540.0,21.265400628579734,0.6521839891465042,504.8612614543605,586.3513356058526,179.17733715957695,8.630642555293162,408.10549938818895,590.0821283501103
550.0,21.259706680651085,0.6787363313477675,514.7472522875455,612.8333482956756,179.58094433437097,8.599819788090997,415.97773290364154,616.6331799400725
560.0,21.254611562186362,0.7044019545691944,524.8914305922101,640.1306439726009,179.9777879705518,8.567700995742326,424.103869328701,643.9970325526307
570.0,21.25008465301288,0.7309667507521715,535.2938022018236,668.2443829359605,180.36812195289244,8.53433937909,432.48397268867495,672.1748420793601
580.0,21.246096382458937,0.7583256672932127,545.9543726489605,697.1754931502703,180.7521863234765,8.499786257663638,441.11810458134414,701.1675355543013
590.0,21.24261822935343,0.7863864756696809,556.8731471757897,726.924704744874,181.13020824872,8.464091221498634,450.00632430904477,730.9758447762146
600.0,21.23962272202551,0.8168282493174872,568.0501307445641,757.4925799119607,181.5024029049946,8.427302272068314,459.1486890015674,761.6003354870944
610.0,21.237083438304243,0.8504006559181629,579.4853280481137,788.8795387395962,181.8689742909358,8.389465953417131,468.5452537306429,793.0414326201119
620.0,21.234975005518397,0.8846983500376974,591.1787435203349,821.085881473878,182.23011597359607,8.350627474464044,478.19607161670547,825.2994420902338
630.0,21.233273100496113,0.9196346588358343,603.1303813466836,854.1118076589347,182.58601177480165,8.310830823341396,488.10119392855864,858.374569557934
640.0,21.231954449564803,0.9551346868946379,615.3402454746665,887.957432557819,182.93683640337093,8.270118874542955,498.2606701765091,892.2669365531682
650.0,21.230996828550815,0.9911336642138346,627.8083396243333,922.6228012131455,183.28275603823556,8.228533489573675,508.6745481994801,926.9765943048365
660.0,21.230379062779395,1.0275755018088817,640.5346672987698,958.1079004647187,183.62392886696787,8.186115611722938,519.342874246571,962.5035355813557
670.0,21.23008102707443,1.0644115421265803,653.5192317945905,994.4126692029557,183.96050558374358,8.14290535551937,530.2656930534822,998.8477048113215
680.0,21.230083645758388,1.1015994856634979,666.7620362124306,1031.5370071019793,184.29262985034921,8.098942091368745,541.4430479141931,1036.0090067198635
690.0,21.230368892652123,1.1391024731879167,680.2630834674411,1069.4807820448164,184.62043872347638,8.05426452582669,552.8749807482424,1073.987313686224
700.0,21.230919791074808,1.1768883031942272,694.0223762997797,1108.2438364251739,184.9440630512164,8.008910777912305,564.5615321639283,1112.7824720012736
710.0,21.23172041384382,1.2149287656197467,708.0399172851062,1147.825992485515,185.26362784138047,7.962918451828352,576.502741517726,1152.3943071799279
720.0,21.232755883274642,1.253199074788563,722.3157088450747,1188.2270568294305,185.57925260401277,7.916324706417181,588.6986469701857,1192.8226284625298
730.0,21.23401237118079,1.291677386638483,736.8497532578285,1229.446824227289,185.89105167023482,7.869166321647825,601.149285538557,1234.0672326209592
740.0,21.23547709887373,1.3303443873252707,751.6420526684922,1271.4850808175977,186.1991344893564,7.821479762399428,613.8546931463684,1276.127907169266
750.0,21.23713833716281,1.3691829421762034,766.6926090996675,1314.3416067921426,186.5036059060052,7.7733012397781085,626.8149046701635,1319.0044330647536
760.0,21.2389854063552,1.408177795636912,782.0014244619257,1358.016178640543,186.8045664188661,7.724666770178432,640.0299539835872,1362.6965869734026
770.0,21.24100867625583,1.4473153143118391,797.5685005643024,1402.5085710191063,187.10211242247343,7.675612232276322,653.4998739989979,1407.204143163146
780.0,21.243199566167366,1.4865832664481666,813.3938391247913,1447.8185582996266,187.39633643337157,7.626173422117677,667.2246967067615,1452.5268750794876
790.0,21.245550544890104,1.5259706322747597,829.4774417808387,1493.9459158457873,187.6873273018387,7.576386106445094,681.2044532123862,1498.6645566502632
800.0,21.248055130721994,1.5654674405031725,845.8193100998377,1540.8904210579913,187.97517041026651,7.526286074384681,695.4391737716245,1545.6169633596498
810.0,21.25070789145856,1.6050646270500015,862.4194455896219,1588.6518542215408,188.25994785919067,7.47590918759472,709.9288878236774,1593.3838731257995
820.0,21.25350444439286,1.6447539126695796,879.2778497089605,1637.229999188074,188.54173864188311,7.425291428958761,724.6736240226164,1641.9650670115768
830.0,21.256441456315496,1.6845276967123937,896.3945238780523,1686.6246439157926,188.82061880833953,7.3744689498861025,739.6734102671303,1691.3603297936224
840.0,21.259516643514544,1.7243789646643406,913.76946948902,1736.835580890339,189.09666161942468,7.323478116263846,754.9282737287032,1741.5694504113496
850.0,21.26272877177552,1.7643012074889848,931.4026879164051,1787.8626074449942,189.3699376918757,7.272355553085793,770.4382408783108,1792.5922223143675
860.0,21.26607765638139,1.8042883511018446,949.2941805276621,1839.7055259961267,189.64051513480592,7.221138187763539,786.2033375117292,1844.4284437241547
870.0,21.26956416211253,1.8443346945621824,967.4439486936533,1892.3641442075177,189.9084596783003,7.16986329210641,802.2235887735322,1897.077917823504
880.0,21.273190203246696,1.8844348557825639,985.8519937991425,1945.8382750951694,190.1738347946439,7.118568522935998,818.499019179856,1950.540452885324
890.0,21.276958743559014,1.924583723736462,1004.5183172532909,2000.1277370825057,190.43670181268624,7.06729196128153,835.0296526400001,2004.81586235066
900.0,21.28087379632196,1.9647764162954464,1023.4429205001506,2055.232354014407,190.6971200257999,7.016072150080297,851.8155124769307,2059.9039648643943
910.0,21.28494042430533,2.0050082429546143,1042.62580502916,2111.151955137267,190.9551467938605,6.9649481302862535,868.8566214467468,2115.804584275812
920.0,21.289164739776254,2.0452746718121886,1062.0669723856377,2167.886375051192,191.21083763963995,6.913959475267291,886.1530017571689,2172.5175496101942
930.0,21.293553904499163,2.085571300259698,1081.766424181278,2225.4354536395385,191.46424633997609,6.8631463233484515,903.7046750851,2230.0426950166493
940.0,21.29811612973576,2.125893828915814,1101.724162104645,2283.7990359802066,191.71542501205494,6.812549408334861,921.5116625933135,2288.3798596966617
950.0,21.30286067624504,2.1662380384018243,1121.9401879316686,2342.9769722424294,191.9644241951154,6.762210087823413,939.5739849463089,2347.5288878171204
960.0,21.307797854283255,2.206599768611928,1142.4145035361357,2402.9691175722246,192.21129292786574,6.712170369087657,957.8916623253848,2407.4896284110605
970.0,21.31293902360391,2.2469749001786097,1163.1471109001907,2463.7753319691906,192.45607882187798,6.662472932294671,976.4647144429689,2468.2619352688303
980.0,21.318296593457756,2.287359337873338,1184.1380121248235,2525.3954801568916,192.69882813120861,6.613161150787877,995.293160556239,2529.8456668219915
990.0,21.323884022592782,2.327748995717233,1205.3872094403705,2587.829431448734,192.93958581847593,6.564279108143436,1014.3770194800794,2592.2406860218957
1000.0,21.32971581925419,2.368139783605658,1226.8947052170054,2651.077059610922,193.17839561760746,6.515871611683765,1033.716309599398,2655.4468602145644
1010.0,20.853706385780626,2.4589684030478267,1246.998723498371,2715.4145152862343,185.56315894874157,5.879030326745402,1059.5799329601418,2718.56837684904
1020.0,20.87654597051946,2.4967967262290056,1269.0180855563187,2780.289404290183,185.79353104462274,5.845197358763022,1079.5086838908032,2783.3857287267047
1030.0,20.899321101451672,2.534664254771528,1291.295917064419,2845.977593434141,186.02228417672978,5.812378500931915,1099.692964362387,2849.0138641635035
1040.0,20.922032587533273,2.5725694596503033,1313.8322173821073,2912.478973475592,186.24945022906195,5.780624799254792,1120.1327891438825,2915.4526668413955
1050.0,20.94468123490631,2.6105108912239565,1336.6269858768985,2979.793438957826,186.47506016633372,5.74998742917392,1140.8281727022484,2982.702024198473
1060.0,20.967267846898856,2.6484871737637024,1359.6802219243573,3047.9208880783217,186.69914406902492,5.720517612294862,1161.779129211191,3050.7618273029702
1070.0,20.98979322402502,2.6864970004232993,1382.9919249080692,3116.861222559743,186.92173116677898,5.692266525244719,1182.9856725596158,3119.6319707294942
1080.0,21.012258163984903,2.7245391286097718,1406.5620942196142,3186.614347523853,187.14284987024143,5.665285200772191,1204.4478163597537,3189.312352437781
1090.0,21.034663461664646,2.7626123757185996,1430.3907292585368,3257.180171368595,187.36252780142598,5.639624421293293,1226.1655739549824,3259.8028736542483
1100.0,21.057009909136383,2.8007156152007875,1454.4778294323191,3328.558605648503,187.58079182268813,5.615334605192095,1248.1389584273622,3331.103438756555
1110.0,21.079298295658262,2.838847772932477,1478.8233941563515,3400.7495649585708,187.79766806438272,5.592465686298743,1270.3679826048867,3403.2139551612863
1120.0,21.101529407674423,2.877007823860614,1503.4274228539048,3473.752966821667,188.01318195127632,5.571066987086045,1292.8526590684755,3476.1343332149077
1130.0,21.123704028815016,2.9151947889007546,1528.289914956103,3547.568731579532,188.22735822778083,5.551187086248879,1315.5930001587103,3549.864486088019
1140.0,21.145822939896178,2.9534077320654952,1553.4108699018925,3622.1967822873726,188.44022098207105,5.532873681455469,1338.5890179823316,3624.404329672956
1150.0,21.16788691892004,2.991645757803933,1578.7902871380174,3697.6370446120627,188.65179366914452,5.516173448183487,1361.8407244185012,3699.75378248475
1160.0,21.189896741074705,3.0299080085345254,1604.4281661189882,3773.889446733889,188.8620991328794,5.501131895673884,1385.3481311248481,3775.9127655654293
1170.0,21.21185317873429,3.068193662355279,1630.3245063070553,3850.953919251824,189.0711596271411,5.487793221148255,1409.1112495433003,3852.8812023916294
1180.0,21.23375700145889,3.1065019309167803,1656.47930717218,3928.8303950922523,189.27899683598733,5.476200163537762,1433.1300909057145,3930.659018785467
1190.0,21.25560897599455,3.1448320574447988,1682.8925681920066,4007.5188094210835,189.48563189301694,5.466393858060176,1457.4046662393166,4009.2461428286306
1200.0,21.277409866273327,3.183183314900496,1709.5642888518348,4087.019099559172,189.69108539990563,5.458413693052313,1481.934986371948,4088.642504779597
1210.0,21.299160433413235,3.2215550042672936,1736.4944686445906,4167.331204900954,189.89537744416887,5.452297170515718,1506.721061937146,4168.848036993938
1220.0,21.320861435718278,3.259946452954403,1763.6831070707974,4248.455066836222,190.09852761619155,5.448079771860336,1531.7629033790438,4249.8626738475905
1230.0,21.342513628678407,3.2983570133080176,1791.1302036385505,4330.390628674938,190.30055502555834,5.445794830332068,1557.0605209571136,4331.686351663058
1240.0,21.36411776496957,3.3367860612217695,1818.8357578634866,4413.137835574985,190.5014783167208,5.44547341158384,1582.6139247507529,4414.31900863841
1250.0,21.385674594453672,3.37523299483896,1846.7997692687554,4496.696634472761,190.7013156840318,5.447144203794895,1608.423124663715,4497.760584779016
1260.0,21.407184864178575,3.4136972333396023,1875.0222373849929,4581.066974016531,190.90008488617912,5.450833418659511,1634.4881304284074,4582.011021831947
1270.0,21.42864931837812,3.452178215805908,1903.503161750293,4666.248804502426,191.0978032600448,5.4565647044548,1660.8089516100363,4667.070263222881
1280.0,21.45006869847211,3.4906754001604496,1932.2425419101783,4752.242077812992,191.29448773401936,5.464359072259478,1687.385597610634,4752.938253995524
1290.0,21.471443743066295,3.529188262171668,1961.2403774175725,4839.046747358205,191.49015484079538,5.474234836233867,1714.2180776729463,4839.614940753363
1300.0,21.492775187952407,3.56771629452179,1990.4966678327728,4926.662768018857,191.68482072966444,5.48620756868943,1741.306400884209,4927.100271603747
1310.0,21.514063766108126,3.606259005932721,2020.0114127234199,5015.090096092201,191.8785011783411,5.500290070477962,1768.6505761797935,5015.394196104126
1320.0,21.535310207697105,3.644815920345745,2049.784611664473,5104.328689239809,192.07121160433485,5.516492357020671,1796.2506123467506,5104.496665210448
1330.0,21.556515240068922,3.6833865761512667,2079.8162642381762,5194.378506437504,192.26296707589123,5.534821660081219,1824.1065180272415,5194.40763122757
1340.0,21.57767958775914,3.721970525465052,2110.1063700340396,5285.2395079273265,192.4537823225206,5.555282445169449,1852.2183017218622,5285.127047761642
1350.0,21.59880397248928,3.7605673334478005,2140.6549286488003,5376.911655171422,192.64367174513436,5.577876444249317,1880.5859717928688,5376.6548696743475
1360.0,21.619889113166792,3.7991765776650386,2171.4619396864005,5469.394910807795,192.8326494258045,5.6026027032210735,1909.2095364673064,5468.991053038978
1370.0,21.64093572588509,3.837797847484607,2202.5274027579594,5562.689238607835,193.02072913716478,5.629457643457957,1938.0890038400441,5562.135555098217
1380.0,21.66194452392356,3.8764307435091983,2233.8513174817426,5656.794603435546,193.20792435146723,5.658435136506826,1967.224381876718,5656.088334223594
