Temperature,Cp,Cp_uncertainty,H,H_uncertainty,S,S_uncertainty,G,G_uncertainty
100.0,30.359123069977255,3.0,5327.442477069196,7505.857132586311,196.04707623553566,19.336873468763077,5307.837769445642,7506.235907280483
110.0,30.35912707395233,3.0,5410.587126498044,7623.441423447345,197.9338690766366,19.614232036983267,5388.814400899614,7623.720123020014
120.0,30.35914304387588,3.0,5493.731864377985,7741.0258393971135,199.69991251105546,19.867440723867034,5469.767874876659,7741.199873412854
130.0,30.359192921104913,3.0,5576.876905222645,7858.610683803697,201.3645619803803,20.100370617732,5550.699512165196,7858.677026335894
140.0,30.3593217138035,3.0,5660.022789486713,7976.196720985446,202.9428651828662,20.316031258229184,5631.610788361111,7976.153668596853
150.0,30.35960783174651,3.0,5743.170666621913,8093.785576512577,204.44675513869475,20.516809249394893,5712.503653351109,8093.63255775195
160.0,30.360171161870824,3.0,5826.322672463208,8211.380270911863,205.8858580341264,20.704629828481224,5793.380935177748,8211.117693257329
170.0,30.36117658232685,3.0,5909.4823660344655,8328.985837403126,207.26805608879107,20.881069439414162,5874.246796499371,8328.614962000871
180.0,30.36283184715184,3.0,5992.655173644694,8446.609949946158,208.59988933681467,21.04743608901888,5955.107193564067,8446.132787389406
190.0,30.365380135395633,3.0,6075.848784409251,8564.263482592183,209.88684837134528,21.204827895925,6035.970283218695,8563.68270494639
200.0,30.369088574583774,3.0,6159.073449756657,8681.960933050448,211.13359141986808,21.35417650562956,6116.846731472683,8681.27979868701
210.0,30.374234536794074,3.0,6242.342155467958,8799.720665988623,212.3441077797774,21.496279777611424,6197.749892834205,8798.942954737846
220.0,30.381091514916662,3.0,6325.670653165916,8917.564957565251,213.52184254432478,21.631826730520903,6278.695847806164,8916.69491436419
230.0,30.38991607592525,3.0,6409.07735488485,9035.519846328974,214.6697929712484,21.76141681590562,6359.7033025014625,9034.562132004612
240.0,30.400936929418197,3.0,6492.58310708693,9153.614813629323,215.79058381264522,21.885574984184988,6440.793366971895,9152.574461780661
250.0,30.414346677185037,3.0,6576.210868480561,9271.882327983098,216.88652686362116,22.00476359438018,6521.989236764655,9270.764707149763
260.0,30.43029640456178,3.0,6659.985319552008,9390.357292868699,217.95966855629564,22.119391932915068,6603.315805727371,9389.168073328858
270.0,30.448892972503824,3.0,6743.932431728542,9509.07643743081,219.01182841389743,22.22982390443543,6684.799238056789,9507.821562079826
280.0,30.47019867453914,3.0,6828.079021621608,9628.077686085031,220.04463045351417,22.33638431235878,6766.466525094624,9626.763344924193
290.0,30.494232821075702,3.0,6912.452311862653,9747.399537445957,221.05952909878252,22.439364041412446,6848.345048424006,9746.032145268178
300.0,30.520974783518675,3.0,6997.079515468517,9867.080476531079,222.05783077748583,22.53902437715311,6930.462166235271,9865.666653435595
310.0,30.550368050159776,3.0,7081.987456062826,9987.15843767272,223.0407120940113,22.635600640458204,7012.844835313683,9985.704992077768
320.0,30.58232489549101,3.0,7167.202232029755,10107.670329559734,224.0092352551935,22.729305272694642,7095.519276748093,10106.184243414165
330.0,30.616731329320697,3.0,7252.748929009191,10228.651628644275,224.96436127052527,22.820330475760997,7178.510689789918,10227.140044567901
340.0,30.653452060982495,3.0,7338.651382150817,10350.136042918282,225.9069613298406,22.90885048762407,7261.843015298671,10348.6062530272
350.0,30.69233527993179,3.0,7424.931987231925,10472.155244793743,226.83782667302137,22.995023556260215,7345.538747896368,10470.61468099159
360.0,30.733217112990097,3.0,7511.61155805863,10594.73866943755,227.75767719946361,23.078993661548665,7429.618794266824,10593.19489497687
370.0,30.77592566846748,3.0,7598.709226430416,10717.913373300002,228.66716901437616,23.160892024531176,7514.102373895097,10716.374075439473
380.0,30.820284617884823,3.0022943900737475,7686.242380260545,10841.70394660386,229.56690107033825,23.24083843572359,7599.006957853817,10840.176930207257
390.0,30.86611629747682,3.011460725992147,7774.226635116556,10966.132473096523,230.45742103287154,23.318942428230255,7684.348240913736,10964.625655037884
400.0,30.91324433504694,3.020886333506171,7862.675834390064,11091.218530290158,231.33923047581126,23.395304316818198,7770.14014219974,11089.739934546536
410.0,30.961495824263462,3.0305366313494755,7951.602073448597,11216.979223617569,232.21278949432326,23.470016120520594,7856.3948297559255,11215.536976946209
420.0,31.010703079374643,3.0403780823717117,8041.015743401767,11343.429248326893,233.0785208092638,23.543162383508704,7943.122764661877,11342.031576437526
430.0,31.060705009756646,3.0503784684481117,8130.925590479148,11470.580973454615,233.93681342529416,23.614820906714776,8030.332760706272,11469.236197599968
440.0,31.111348156738067,3.060507097844396,8221.338787429157,11598.444542798827,234.7880258960621,23.68506340086836,8118.03205603489,11597.161076717466
450.0,31.162487435663685,3.07073495362952,8312.261013776835,11727.02798842087,235.63248924233687,23.75395607012332,8206.226393617784,11725.814335576159
460.0,31.213986624903317,3.081034791477446,8403.696542203152,11856.337352804117,236.47050956285642,23.821560134227227,8294.920107804239,11855.202103871583
470.0,31.265718641068553,3.091381194710493,8495.648328713925,11986.376816372089,237.30237037252954,23.88793229616185,8384.116214638836,11985.328646934897
480.0,31.31756563652762,3.1017505938023064,8588.118104643785,12117.148827601699,238.1283346983254,23.953125161321026,8473.816503988588,12116.196496020299
490.0,31.36941895175267,3.1121212568473173,8681.106468883865,12248.65423345291,238.9486469595101,24.017187613557965,8564.021631873706,12247.806578880472
500.0,31.42117895134751,3.122473256766285,8774.612979028869,12380.89240827015,239.76353465574,24.080165152803943,8654.731211700999,12380.158348790083
510.0,31.472754768966233,3.1327884202900296,8868.636240409318,12513.861379692931,240.57320988379743,24.14210019841543,8745.943903368581,12513.24991055887
520.0,31.52406398286528,3.1430502630698385,8963.173992209455,12647.557950444947,241.37787070138307,24.203032361932557,8837.657499444735,12647.078142406957
530.0,31.575032240608436,3.15324391461847,9058.223190072222,12781.977815155156,242.17770235430817,24.262998692517577,8929.86900782444,12781.638812858846
540.0,31.625592848509534,3.163356036198689,9153.78008476317,12917.115671605352,242.9728783816076,24.322033897977462,9022.574730437102,12916.92669205295
550.0,31.67568633876815,3.1733747342504124,9249.840296607463,13052.965325999985,243.76356161149226,24.3801705439544,9115.770337721142,13052.935657064561
560.0,31.725260024931234,3.1832894714830298,9346.398885531897,13189.519792020528,244.54990505964105,24.437439233584158,9209.450938698497,13189.658791006173
570.0,31.77426755428631,3.1930909773540446,9443.450416639796,13326.771383562394,245.33205274007668,24.493868769671277,9303.611146577952,13327.088475804589
580.0,31.82266846404223,3.202771159305229,9540.989021323712,13464.711801161335,246.1101403977583,24.549486301207605,9398.245139893012,13465.216478662938
590.0,31.87042774665824,3.212323015828431,9639.00845398179,13603.332212202506,246.88429617103327,24.604317455862596,9493.34671924088,13604.03403230171
600.0,31.917515428416344,3.2217405521800515,9737.502144450678,13742.623325071783,247.6546411912116,24.658386459898264,9588.909359735952,13743.531909139185
610.0,31.963906164270952,3.2310186993509733,9836.463246303421,13882.57545745932,248.4212901257462,24.71171624680518,9684.926259326716,13883.70048962187
620.0,32.00957885112841,3.2401532367224655,9935.88468118653,14023.178599061604,249.1843516708038,24.764328555816704,9781.39038315063,14024.529824951745
630.0,32.054516260984215,3.2491407186936265,10035.759179388206,14164.422468953622,249.94392899839409,24.81624402133476,9878.294504119218,14166.009694482269
640.0,32.09870469475594,3.2579784054479712,10136.079316840947,14306.296567918422,250.70012016267043,24.86748225419003,9975.63123993684,14308.12965807083
650.0,32.14213365717575,3.2666641979319317,10236.837548767613,14448.790226029845,251.45301846952583,24.91806191556111,10073.39308676242,14450.879103683608
660.0,32.18479555273001,3.2751965770427844,10338.02624018184,14591.892645786633,252.2027128131684,24.968000784289625,10171.572449725149,14594.247290551295
670.0,32.226685402340024,3.283574546964787,10439.637693451888,14735.592941093575,252.9492879829705,25.017315818250044,10270.161670503298,14738.223388171446
680.0,32.26780058025302,3.291797582547386,10541.664173132864,14879.880172379593,253.69282494353823,25.066023210363593,10369.153052171258,14882.796511447468
690.0,32.30814057044552,3.299865580585886,10644.09792826607,15024.743378133779,254.43340109063695,25.11413843978334,10468.53888151353,15027.955752245396
700.0,32.34770674172057,3.3077788148408973,10746.931212336573,15170.171603129647,255.17109048533314,25.161676318722574,10568.31144899684,15173.690207638716
710.0,32.38650214059898,3.3155378946165786,10850.156301071476,15316.153923595713,255.90596406846475,25.208651035348893,10668.463066582866,15319.989005099364
720.0,32.42453130105371,3.3231437267075252,10953.765508252156,15462.679469577355,256.63808985733436,25.255076193122818,10768.986083554875,15466.841324879972
730.0,32.46180007011129,3.3305974805190406,11057.751199703955,15609.737444721233,257.3675331263214,25.300964846920227,10869.87290052174,15614.236419818542
740.0,32.4983154483377,3.337900556164323,11162.105805617168,15757.3171436998,258.0943565729357,25.346329536243086,10971.115981753195,15762.163632783135
750.0,32.534085444236005,3.345054555343984,11266.82183134323,15905.407967479407,258.8186204706785,25.391182315791646,11072.707865990222,15910.61241196005
760.0,32.56911894160375,3.3520612548175315,11371.891866800459,16053.999436622042,259.54038280993734,25.43553478364342,11174.641175864906,16059.572324175531
770.0,32.603425578928324,3.3589225822824478,11477.308594614318,16203.081202797393,260.2596994280167,25.479398107259282,11276.908626054745,16209.033066427684
780.0,32.637015639934816,3.3656405944837453,11583.064797108127,16352.643058669213,260.97662412929503,25.52278304751495,11379.503030287278,16358.984475792538
790.0,32.66989995444119,3.372217457385022,11689.153362251458,16502.674946307616,261.6912087964003,25.565699980936007,11482.417307302301,16509.416537855872
800.0,32.70208980871974,3.378655428240731,11795.567288665283,16653.166964267417,262.4035034932058,25.6081589202971,11585.644485870718,16660.319393810947
810.0,32.73359686460803,3.3849568394183893,11902.299689775064,16804.109373461517,263.11355656036915,25.65016953372977,11689.177708961164,16811.683346351012
820.0,32.764433086658826,3.391124083828549,12009.343797195757,16955.492601947983,263.8214147040678,25.691741162469505,11793.010237138422,16963.498864475383
830.0,32.79461067666318,3.3971596018294195,12116.69296342571,17107.307248739824,264.52712307851766,25.732882837359472,11897.13545127054,17115.756587317883
840.0,32.8241420149257,3.403065869481923,12224.34066392001,17259.54408673714,265.23072536280694,25.773603294217335,12001.546854615252,17268.447327097485
850.0,32.85303960771405,3.4088453880395932,12332.280498607974,17412.19406487317,265.9322638325258,25.813910988161098,12106.238074350327,17421.56207128256
860.0,32.88131604034622,3.4145006745660265,12440.506192913734,17565.24830955762,266.6317794266246,25.853814106980867,12211.202862606837,17575.09198405213
870.0,32.90898393541892,3.420034253580567,12549.011598333782,17718.698125493444,267.32931180989624,25.8933205836352,12316.435097059171,17729.028407130292
880.0,32.93605591571812,3.425448649640407,12657.790692620592,17872.534995936512,268.02489943143644,25.932438107943234,12421.928781120929,17883.362860063222
890.0,32.96254457138832,3.430746380774447,12766.837579616986,18026.75058246138,268.71857957940676,25.971174137537293,12527.678043791315,18038.087040001978
900.0,32.98846243097081,3.4359299526909455,12876.146488781827,18181.336724290508,269.410388432393,26.00953590813455,12633.677139192672,18193.192821048444
910.0,33.01382193595255,3.4410018536872933,12985.711774443964,18336.28543723918,270.1003611076258,26.04753044318111,12739.920445836024,18348.67225321667
920.0,33.038635418496554,3.4459645501960945,13095.527914817802,18491.588912323332,270.78853170630515,26.085164562916976,12846.402465648,18504.517561056728
930.0,33.062915082052214,3.4508204829072264,13205.589510810845,18647.23951407312,271.4749333562502,26.122444892905975,12953.117822789533,18660.7211419841
940.0,33.08667298456927,3.455572063410637,13315.891284650563,18803.22977859106,272.1595982520744,26.159377872070817,13060.061262293613,18817.275564353175
950.0,33.10992102406263,3.460221671309308,13426.428078355362,18959.552411389624,272.8425576930705,26.19596976027005,13167.227648546945,18974.17356530997
960.0,33.13267092629729,3.4647716517562404,13537.194852071983,19116.20028503998,273.52384211897197,26.23222664545034,13274.611963637772,19131.408048455636
970.0,33.15493423438237,3.4692243133732563,13648.18668229947,19273.166436660307,274.20348114374286,26.26815445040452,13382.20930559004,19288.97208134915
980.0,33.176722300082105,3.4735819265132046,13759.3987600178,19430.444065269257,274.8815035875384,26.303758939163625,13490.014886502013,19446.858892874938
990.0,33.198046276668606,3.4778467218305034,13870.826388737492,19588.02652902772,275.5579375069617,26.339045723048283,13598.0240306056,19605.061870498354
1000.0,33.21891711315675,3.482020889128132,13982.46498248477,19745.90734238938,276.2328102237359,26.374020266403125,13706.232172261034,19763.574557429718
1010.0,33.23934554977637,3.4861065764520562,14094.310063735367,19904.080173178696,276.90614835189837,26.40868789203562,13814.63485389995,19922.390649715395
1020.0,33.25934211454958,3.4901058894067,14206.357261308714,20062.538839612822,277.57797782361604,26.44305378637915,13923.227723928625,20081.503993272523
1030.0,33.278917120853684,3.4940208906675196,14318.602308232876,20221.277307282173,278.2483239137131,26.477123004398567,14032.006534601753,20240.90858088208
1040.0,33.298080665860766,3.497853599668937,14431.04103958963,20380.289686102922,278.91721126299456,26.510900474254864,14140.967139876117,20400.598549153518
1050.0,33.31684262975568,3.501605992447919,14543.669390347894,20539.57022725297,279.5846639004424,26.54439100174443,14250.10549325243,20560.568175472665
1060.0,33.33521267564282,3.505280001625348,14656.483393192837,20699.11332010189,280.25070526435564,26.577599274527074,14359.417645612619,20720.811874943185
1070.0,33.35320025006115,3.508877516509012,14769.479176357187,20858.91348914388,280.91535822250023,26.610529866156,14468.899743059112,20881.32419733086
1080.0,33.37081458403401,3.5124003833035853,14882.6529614604,21018.965390941943,281.5786450913287,26.64318723992169,14578.548024761765,21042.0998240187
1090.0,33.38806469458803,3.515850405414389,14996.001061360748,21179.263811090237,282.24058765432613,26.675575752521173,14688.358820817532,21203.13356498004
1100.0,33.40495938668106,3.5192293438329934,15109.519878024652,21339.803661200873,282.90120717953414,26.707699657562774,14798.328550127164,21364.420355775757
1110.0,33.42150725548552,3.522538917593888,15223.205900417148,21500.57997592059,283.5605244363006,26.739563108916077,14908.453718292854,21525.955254581073
1120.0,33.437716688978696,3.525780804292522,15337.055702416746,21661.587909981918,284.21855971130117,26.771170163916175,15018.730915540089,21687.73343924664
1130.0,33.453595870795965,3.5289566406559767,15451.065940757548,21822.822735292866,284.87533282387136,26.80252478643022,15129.156814666574,21849.750204397835
1140.0,33.469152783308104,3.532068023158403,15565.233353001031,21984.27983806864,285.5308631406908,26.833630849794105,15239.728169020642,22012.000958575845
1150.0,33.48439521088697,3.535116508674177,15679.554755539599,22145.954716008197,286.1851695898532,26.864492139626584,15350.441810511267,22174.48122142337
1160.0,33.49933074332823,3.5381036151624294,15794.027041633582,22307.84297551816,286.83827067435607,26.89511235652716,15461.29464765133,22337.186620917408
1170.0,33.513966779402494,3.541030822377282,15908.64717948314,22469.94032898608,287.490184485042,26.925495118664344,15572.28366363564,22500.11289065113
1180.0,33.5283105305096,3.543899572598703,16023.412210336195,22632.242592104638,288.1409287130194,26.95564396425982,15683.405914454832,22663.255867166572
1190.0,33.54236902441342,3.5467112713794666,16138.319246633351,22794.745681248172,288.79052066159034,26.985562353974014,15794.65852704606,22826.611487339287
1200.0,33.556149109036795,3.5494672883041427,16253.365470190465,22957.44561090245,289.4389772577114,27.275145761388288,15906.038697481212,22990.175785816118
1210.0,33.569657456298856,3.552168957756553,16368.548130419389,23120.338491148406,290.0863150630097,27.77388542007166,16017.543689193148,23153.944892506694
1220.0,33.58290056597842,3.5548175796924677,16483.86454258724,23283.420525200385,290.73255028437825,28.274184367902205,16129.170831240297,23317.915030129225
1230.0,33.59588476958973,3.557414420414729,16599.312086114373,23446.688006999117,291.3776987841695,28.776020172125783,16240.917516609843,23482.08251181083
1240.0,33.60861623425757,3.559960713348296,16714.888202911105,23610.13731885947,292.02177609000853,29.279370873364595,16352.781200559493,23646.443738742444
1250.0,33.62110096658111,3.5624576598130044,16830.590395753166,23773.764929173023,292.66479740424234,29.78421497225335,16464.759398997863,23810.99519788834
1260.0,33.63334481647663,3.5649064297921087,16946.416226695666,23937.56739016504,293.30677761304366,30.29053141656449,16576.84968690323,23975.73345974991
1270.0,33.645353480990664,3.567308162694915,17062.363315525374,24101.54133570569,293.9477312951858,30.7982995887992,16689.049696780487,24140.655176183467
1280.0,33.657132508076224,3.5696639681120277,17178.429338250917,24265.683479174855,294.58767273050194,31.307499294223636,16801.357117155872,24305.75707827146
1290.0,33.6686873003258,3.5719749265619423,17294.612025630562,24429.990611380104,295.2266159080457,31.818110749328596,16913.769691109184,24471.03597424674
1300.0,33.68002311865544,3.5742420902278718,17410.909161737083,24594.459598527097,295.8645745339644,32.33011457069458,17026.285214842927,24636.488747468997
1310.0,33.69114508593552,3.576466483683887,17527.31858255916,24759.087380241675,296.501562039099,32.843491764244185,17138.90153628794,24802.11235445284
1320.0,33.70205819056385,3.5786491046095517,17643.838174638884,24923.870967643,297.1375915863225,33.35822371486371,17251.61655374494,24967.903822946624
1330.0,33.7127672899781,3.5807909244924043,17760.465873744604,25088.80744146668,297.7726760776284,33.87429217637928,17364.42821456136,25133.860250061265
1340.0,33.723277114104725,3.582892889317728,17877.19966357866,25253.893950237212,298.40682816097865,34.391679261871225,17477.334513842947,25299.97880044812
1350.0,33.73359226874185,3.5849559202451533,17994.0375745192,25419.12770848866,299.0400602369241,34.910367434312604,17590.333493199352,25466.25670452499
1360.0,33.74371723887484,3.586980914271751,18110.977682395587,25584.50599503282,299.67238446500414,35.430339497517835,17703.42323952318,25632.691256749444
1370.0,33.7536563919227,3.5889687448813237,18228.018107296506,25750.02615127361,300.3038127699359,35.95157858739016,17816.601883801693,25799.279813938338
1380.0,33.763413980914635,3.5909202626797105,18345.157012410265,25915.685579567024,300.93435684760277,36.47406816345267,17929.867599960573,25966.01979363259
1390.0,33.77299414759587,3.5928362960159554,18462.3926028965,26081.481741625477,301.56402817084836,36.99779200065444,18043.21860373902,26132.908672506386
1400.0,33.78240092546246,3.594717651589275,18579.723124788547,26247.41215696552,302.1928379950854,37.522734181438075,18156.653151595427,26299.943984819536
